I,II,III,aVR,aVL,aVF,V1,V2,V3,V4,V5,V6
-0.08510828,0.62717307,1.0681086,-0.34883964,-0.77610654,0.8633901,-0.4615586,-1.3347125,-0.8636506,-1.1887823,1.8877218,-0.22222619
-0.02054152,0.6748151,1.0681086,-0.40709606,-0.7336314,0.89943415,-0.4615586,-1.3205906,-0.85157025,-1.1744475,1.8877218,-0.22222619
0.0071299463,0.7224571,1.0997198,-0.44870785,-0.7336314,0.94448924,-0.4615586,-1.2782253,-0.8274096,-1.1493617,1.8758508,-0.22222619
-0.0020938772,0.7292631,1.131331,-0.44870785,-0.7619482,0.96251124,-0.41542926,-1.2570426,-0.8072758,-1.1242758,1.8699152,-0.22222619
0.0071299463,0.75648713,1.162942,-0.4653525,-0.77610654,0.9895443,-0.3923646,-1.2146773,-0.7790883,-1.09919,1.8580443,-0.22222619
0.016353771,0.77009916,1.1840161,-0.4819972,-0.79026496,1.0165772,-0.41542926,-1.1934948,-0.767008,-1.0812715,1.8550766,-0.22222619
0.0071299463,0.7973231,1.2156272,-0.49031958,-0.8185818,1.0436103,-0.4615586,-1.2287991,-0.7790883,-1.0633531,1.8432055,-0.18865523
-0.029765341,0.7769051,1.2261643,-0.45703018,-0.84689856,1.0345993,-0.4615586,-1.2287991,-0.7831151,-1.0633531,1.8313344,-0.18865523
-0.048212986,0.7496811,1.2261643,-0.43206313,-0.861057,1.0165772,-0.47309095,-1.23586,-0.7831151,-1.0597694,1.822431,-0.18194105
-0.048212986,0.75648713,1.2261643,-0.44038546,-0.861057,1.0255883,-0.5192203,-1.2641035,-0.7831151,-1.0418509,1.81056,-0.15508428
-0.048212986,0.7496811,1.2261643,-0.43206313,-0.861057,1.0255883,-0.5192203,-1.2641035,-0.7790883,-1.0454346,1.798689,-0.15508428
-0.02054152,0.75648713,1.2050903,-0.45703018,-0.8327401,1.0165772,-0.48462328,-1.242921,-0.7911687,-1.0346835,1.7897857,-0.15508428
-0.0020938772,0.7496811,1.162942,-0.4653525,-0.79026496,0.9895443,-0.4615586,-1.2217382,-0.80324894,-1.0239325,1.7719792,-0.15508428
-0.011317696,0.7292631,1.1418679,-0.44038546,-0.79026496,0.96251124,-0.4615586,-1.2287991,-0.80324894,-1.0275161,1.7571404,-0.15508428
0.0071299463,0.7224571,1.1102568,-0.44038546,-0.7477898,0.94448924,-0.4615586,-1.2287991,-0.80324894,-1.0131813,1.7393337,-0.15508428
0.03480141,0.7224571,1.0786457,-0.4653525,-0.70531464,0.9354782,-0.4615586,-1.2287991,-0.80324894,-1.0095977,1.7244949,-0.15508428
0.053249057,0.7224571,1.0575715,-0.4653525,-0.6769978,0.9354782,-0.47309095,-1.2217382,-0.7992222,-1.0095977,1.7096561,-0.1483701
0.08092053,0.71565115,1.0154234,-0.47367486,-0.6203642,0.9084452,-0.5192203,-1.2005556,-0.7871419,-0.99167925,1.6948173,-0.12822753
0.090144336,0.7292631,1.0154234,-0.4819972,-0.6203642,0.9084452,-0.5192203,-1.1793729,-0.77506155,-0.99167925,1.6948173,-0.12151334
0.09936818,0.71565115,0.9943493,-0.4819972,-0.6062059,0.89943415,-0.5192203,-1.1581903,-0.7629812,-0.98809546,1.6918496,-0.12822753
0.14548728,0.73606914,0.97327524,-0.5152866,-0.5495723,0.89943415,-0.5192203,-1.1370076,-0.7509009,-0.97017705,1.697785,-0.11479914
0.12703963,0.7020391,0.94166404,-0.49031958,-0.5495723,0.8724011,-0.5192203,-1.1158249,-0.7428473,-0.97734445,1.6888819,-0.12822753
0.17315875,0.8041291,1.0470345,-0.5735431,-0.5637307,0.9715223,-0.54228497,-1.1370076,-0.7307671,-0.9522586,1.7126238,-0.101370774
0.34841138,1.1308173,1.3526088,-0.8565029,-0.6345226,1.3229518,-0.5884143,-1.1652511,-0.7227135,-0.8734174,1.7719792,-0.03422887
0.37608284,1.1784593,1.394757,-0.8897923,-0.64868104,1.3770179,-0.5999466,-1.1440685,-0.7025796,-0.8626663,1.7957212,0.026198842
0.36685902,1.1512352,1.3736829,-0.8731476,-0.64868104,1.3499848,-0.6691407,-1.172312,-0.7066063,-0.86625,1.8135278,0.10005493
0.42220193,1.2124892,1.394757,-0.9397264,-0.6062059,1.3950397,-0.8651904,-1.1440685,-0.67439216,-0.86625,1.7897857,0.07319816
0.6066784,1.1376232,1.0681086,-0.97301584,-0.252246,1.2058085,-0.93438435,-1.2076164,-0.6904993,-0.8626663,1.7660435,0.03291303
0.6896928,0.9198312,0.6466268,-0.8731476,0.08755547,0.8814121,-0.78446406,-1.1864338,-0.6904993,-0.8770011,1.736366,-0.0140863
0.5144402,0.81774116,0.688775,-0.73999,-0.06818687,0.83635706,-0.7613993,-1.2005556,-0.7307671,-0.9307564,1.7155918,-0.06108563
0.34841138,0.7224571,0.72038615,-0.5985101,-0.22392921,0.78229094,-0.65760833,-1.2499818,-0.7911687,-0.9343402,1.697785,-0.101370774
0.071696706,0.6680091,0.94166404,-0.44038546,-0.577889,0.8453681,-0.56534964,-1.1864338,-0.767008,-0.9450912,1.6710752,-0.1483701
0.025577594,0.64759105,0.97327524,-0.40709606,-0.6345226,0.8453681,-0.5884143,-1.2852863,-0.8072758,-0.948675,1.6651397,-0.18865523
-0.0020938772,0.51147103,0.78360844,-0.31555024,-0.53541386,0.6741589,-0.34623525,-1.052277,-0.7428473,-0.9665934,1.5968812,-0.24908295
-0.075884454,0.5795311,0.9943493,-0.3238726,-0.7336314,0.800313,-0.54228497,-1.2923472,-0.84754354,-0.9450912,1.5909456,-0.18194105
-0.2603609,0.14394695,0.52018225,0.02566608,-0.5495723,0.31371835,0.2073168,-0.67098904,-0.63412446,-0.99526286,1.389138,-0.43036604
-0.71232814,0.74287516,1.9637575,-0.13245855,-1.866303,1.3229518,1.0376449,0.063343264,-0.42875892,-0.83758044,1.4900417,-0.36993837
0.16393493,1.7841936,2.574906,-1.1644298,-1.611452,2.2781188,0.78393346,0.51524,0.3000873,-0.07783782,2.0450132,0.5029063
3.8350163,3.3427682,0.7941454,-3.7776475,2.4095323,2.5484495,-2.1106825,0.9953804,2.039654,1.7104244,3.2617955,2.8864436
6.2977767,4.0710106,-0.9023188,-5.3256044,5.4394283,2.3051522,-5.431995,-1.927827,2.0316007,3.1259828,4.158059,4.699275
2.2392948,0.307291,-2.0824678,-1.1977192,3.117452,-0.686504,-2.7218964,-4.6462684,-1.000561,0.40596056,2.2497888,1.5503199
-2.363392,-1.9046596,-0.24902202,2.2310886,-1.6397687,-1.36233,0.26497847,-4.250859,-3.9441333,-2.9519587,0.40384108,-1.8336318
-2.529421,-1.5575536,0.47803408,2.0896087,-2.262738,-0.82166916,0.8069982,-2.6762812,-3.340117,-2.7906926,0.45726082,-1.9209161
-2.1051254,-1.6120017,-0.09096636,1.9314841,-1.5548184,-1.1010106,2.213943,-1.3629559,-2.0596027,-2.1348767,0.62939095,-1.7060622
-1.3764434,-0.91098344,0.17245977,1.1824727,-1.1725416,-0.52430576,2.4099927,-0.65686727,-1.4435061,-1.6618296,0.9469414,-1.2293546
-0.33415148,0.12352896,0.5834045,0.07560018,-0.64868104,0.33174038,1.1875652,-0.36737087,-0.52137476,-1.0705204,1.2763629,-0.62507755
-0.18657032,0.7224571,1.3209977,-0.357162,-1.0309577,1.0436103,0.5186898,-0.43797973,-0.31600922,-0.8698337,1.4425576,-0.3497958
-0.20501797,0.68842715,1.2999235,-0.33219492,-1.0309577,1.0165772,0.34570482,-0.33206645,-0.23547372,-0.726486,1.4633319,-0.22222619
-0.11277975,0.7973231,1.3631458,-0.44038546,-1.0026408,1.1066874,0.2073168,-0.31794468,-0.1267508,-0.6655633,1.4662997,-0.18865523
-0.06666063,0.8517712,1.394757,-0.4986419,-0.9884826,1.1607535,0.25344613,-0.24027489,-0.038161747,-0.59030575,1.4781708,-0.1416559
0.016353771,0.88580114,1.3631458,-0.55689836,-0.90353215,1.1697645,0.21884914,-0.16966602,0.06250762,-0.55088514,1.4811385,-0.108084954
0.1547111,1.0287273,1.4263681,-0.6983783,-0.84689856,1.2869077,0.23038144,-0.09199626,0.09874859,-0.49712974,1.4900417,-0.05437144
0.2377255,1.0967872,1.4369051,-0.7732794,-0.79026496,1.3319627,0.23038144,0.07040415,0.20747152,-0.42545593,1.487074,-0.0140863
0.31151608,1.1512352,1.4263681,-0.8481806,-0.7336314,1.3680068,0.23038144,0.268109,0.35646215,-0.3573658,1.5493969,0.026198842
0.34841138,1.1376232,1.3631458,-0.8565029,-0.64868104,1.3319627,0.23038144,0.3810832,0.4611583,-0.28569195,1.5850102,0.09334074
0.4406496,1.1920712,1.3420717,-0.93140405,-0.5637307,1.3680068,0.23038144,0.52936184,0.6786042,-0.21043442,1.6295265,0.19405359
0.67124516,1.3281914,1.2893865,-1.122818,-0.35135475,1.4220729,0.24191381,0.8541627,0.92423743,-0.092172585,1.6918496,0.28133804
0.78193104,1.4098634,1.2893865,-1.2143639,-0.2664044,1.4761388,0.34570482,1.0730503,1.1416832,0.026089242,1.7601081,0.3820509
0.7542595,1.4506993,1.38422,-1.2310086,-0.35135475,1.548227,0.4725605,1.3978511,1.4356378,0.14793476,1.8046244,0.5297631
0.7358119,1.4983413,1.4790534,-1.2559756,-0.43630514,1.6203151,0.48409286,1.6873474,1.6611372,0.23394336,1.8402377,0.596905
0.8096025,1.5595955,1.4895905,-1.3225543,-0.37967154,1.6653701,0.41489884,1.8638695,1.826235,0.31278458,1.8639797,0.6506185
0.8557216,1.5936254,1.4895905,-1.3641661,-0.35135475,1.6924032,0.3687695,1.9274175,1.8785831,0.36653996,1.8343021,0.70433205
0.8649454,1.6276555,1.5422757,-1.3891332,-0.37967154,1.7374582,0.3111078,1.8144433,1.8624759,0.33070302,1.81056,0.6573327
0.92951214,1.6821035,1.5422757,-1.4473896,-0.32303798,1.7644913,0.25344613,1.7367736,1.7255657,0.28411505,1.7838503,0.60361916
0.87416923,1.6480734,1.5528127,-1.4057779,-0.37967154,1.7464693,0.2073168,1.3696074,1.4638253,0.2088575,1.7571404,0.54990566
0.65279746,1.5323714,1.626572,-1.2310086,-0.59204745,1.7104253,-0.057926904,0.8541627,1.0812817,0.06909354,1.6829462,0.5029063
0.44987342,1.3554153,1.5844238,-1.0312723,-0.7336314,1.57526,-0.2770413,0.3810832,0.5658545,-0.14592797,1.5583003,0.40219346
0.2746208,1.1240113,1.4263681,-0.8148912,-0.7477898,1.3499848,-0.34623525,0.0068561593,0.17525731,-0.3501984,1.4425576,0.20076777
0.16393493,0.89260715,1.1945531,-0.62347716,-0.6769978,1.1066874,-0.36929992,-0.22615314,-0.10661692,-0.43262333,1.3594602,0.07319816
0.108592,0.76329315,1.0575715,-0.5236089,-0.6345226,0.96251124,-0.33470294,-0.4591624,-0.2757415,-0.5473014,1.2941695,-0.00065791904
0.025577594,0.70884514,1.0681086,-0.44870785,-0.70531464,0.9264672,-0.34623525,-0.60744107,-0.42875892,-0.67631435,1.1724913,-0.11479914
-0.075884454,0.6339791,1.0681086,-0.357162,-0.77610654,0.8724011,-0.34623525,-0.70629346,-0.5334551,-0.726486,1.1101683,-0.20208363
-0.0943321,0.6203671,1.0681086,-0.34051728,-0.79026496,0.8633901,-0.34623525,-0.70629346,-0.50124085,-0.7193186,1.1190716,-0.18865523
-0.12200357,0.59994906,1.0681086,-0.31555024,-0.8185818,0.85437906,-0.34623525,-0.65686727,-0.49721405,-0.70498383,1.1101683,-0.18865523
-0.14045121,0.57272506,1.0470345,-0.2905832,-0.8185818,0.827346,-0.34623525,-0.61450195,-0.4770802,-0.6978165,1.1012651,-0.18865523
-0.12200357,0.5659191,1.0154234,-0.2905832,-0.77610654,0.809324,-0.34623525,-0.56507576,-0.4609731,-0.6870654,1.0982972,-0.18865523
-0.1773465,0.5318891,1.0154234,-0.24064909,-0.8185818,0.78229094,-0.34623525,-0.51564956,-0.45291957,-0.679898,1.1072006,-0.18865523
0.016353771,0.64759105,0.9943493,-0.40709606,-0.6628395,0.85437906,-0.34623525,-0.4944668,-0.4327857,-0.6655633,1.1161039,-0.16179848
0.20083022,0.77009916,0.9522011,-0.5652207,-0.49293873,0.9084452,-0.34623525,-0.52271044,-0.42070538,-0.65481216,1.1250072,-0.12822753
0.18238257,0.75648713,0.96273816,-0.54857606,-0.50709707,0.9084452,-0.3923646,-0.52271044,-0.40862504,-0.6404774,1.1339103,-0.09465659
0.1916064,0.79051715,0.9943493,-0.5735431,-0.53541386,0.94448924,-0.40389696,-0.52271044,-0.39251795,-0.62972635,1.1428137,-0.07451401
0.12703963,0.79051715,1.0786457,-0.5402537,-0.6345226,0.9805332,-0.40389696,-0.52271044,-0.3804376,-0.6118079,1.1457814,-0.03422887
0.03480141,0.81093514,1.2261643,-0.5152866,-0.8044234,1.0616324,-0.40389696,-0.52271044,-0.41265184,-0.5795547,1.1309426,-0.027514677
-0.0020938772,0.8245472,1.2893865,-0.50696427,-0.861057,1.0976764,-0.3923646,-0.5509539,-0.44083926,-0.55088514,1.1220393,-0.05437144
-0.0020938772,0.8245472,1.2683125,-0.50696427,-0.861057,1.0886654,-0.4269616,-0.5580148,-0.44083926,-0.5222156,1.1101683,-0.07451401
-0.011317696,0.81774116,1.2788495,-0.4986419,-0.8752154,1.0886654,-0.4615586,-0.5580148,-0.44083926,-0.49712974,1.1012651,-0.101370774
0.025577594,0.8449652,1.2788495,-0.5319313,-0.8327401,1.0976764,-0.49615562,-0.5580148,-0.44083926,-0.4899624,1.0864263,-0.12151334
0.09936818,0.89941317,1.2788495,-0.5985101,-0.79026496,1.1427314,-0.5192203,-0.5580148,-0.44083926,-0.4792113,1.0923617,-0.09465659
0.12703963,0.89260715,1.2367014,-0.5985101,-0.7336314,1.1156985,-0.56534964,-0.5580148,-0.44083926,-0.4684602,1.1339103,-0.08794238
0.13626346,0.88580114,1.2156272,-0.5985101,-0.71947306,1.1066874,-0.57688195,-0.5580148,-0.42070538,-0.45770916,1.1457814,-0.08794238
0.09936818,0.8653832,1.2261643,-0.5735431,-0.7619482,1.0976764,-0.53075266,-0.5580148,-0.42070538,-0.45054176,1.1220393,-0.05437144
0.12703963,0.8449652,1.1734791,-0.5818654,-0.6911562,1.0616324,-0.48462328,-0.57213664,-0.42070538,-0.4433744,1.113136,-0.05437144
0.13626346,0.8653832,1.1840161,-0.5985101,-0.6911562,1.0796543,-0.45002627,-0.59331924,-0.42070538,-0.42545593,1.1012651,-0.047657244
0.071696706,0.7973231,1.152405,-0.5236089,-0.71947306,1.0165772,-0.41542926,-0.5580148,-0.42070538,-0.42187223,1.0804907,-0.0073721083
0.21927786,0.9674732,1.2472384,-0.6983783,-0.6628395,1.1697645,-0.34623525,-0.52271044,-0.40862504,-0.4039538,1.1309426,0.03291303
0.4406496,1.2533253,1.4369051,-0.9646935,-0.6345226,1.440095,-0.36929992,-0.5085886,-0.4005715,-0.3537821,1.1606202,0.06648398
0.49599254,1.2465193,1.3526088,-0.9896605,-0.53541386,1.4040508,-0.3923646,-0.4450406,-0.3844644,-0.30361038,1.1279749,0.106769115
0.4867687,1.1920712,1.2893865,-0.9563711,-0.49293873,1.3409737,-0.49615562,-0.5085886,-0.3804376,-0.27135718,1.1161039,0.14705426
0.4867687,1.1376232,1.2050903,-0.9147594,-0.43630514,1.2688856,-0.7959964,-0.60744107,-0.35627696,-0.27852455,1.089394,0.1201975
0.7265881,1.1240113,0.9100529,-1.0146276,-0.054028478,1.1247095,-0.87672275,-0.65686727,-0.3683573,-0.26777348,1.0775229,0.07991236
0.66202134,0.94024915,0.699312,-0.8731476,0.030921891,0.91745615,-0.7383347,-0.6003801,-0.37641084,-0.3000267,1.0537808,0.019484652
0.39453048,0.81093514,0.7941454,-0.6817336,-0.23808761,0.8724011,-0.7729317,-0.65686727,-0.41667858,-0.33227992,1.027071,-0.0073721083
0.2838446,0.6748151,0.7309232,-0.5402537,-0.2805628,0.7552579,-0.5999466,-0.60744107,-0.38849115,-0.32869625,0.9973934,-0.06779982
0.14548728,0.70884514,0.9311271,-0.50696427,-0.52125543,0.8633901,-0.62301135,-0.63568467,-0.40862504,-0.32511255,0.964748,-0.08794238
0.12703963,0.5931431,0.77307135,-0.42374077,-0.42214674,0.71921384,-0.5192203,-0.62156284,-0.40459827,-0.30719408,0.94397366,-0.081228204
0.071696706,0.57272506,0.7941454,-0.38212904,-0.4787803,0.71020293,-0.4615586,-0.46622333,-0.37641084,-0.31794515,0.90539277,-0.101370774
0.09936818,0.5659191,0.75199723,-0.39045137,-0.43630514,0.6921809,-0.53075266,-0.6286237,-0.42875892,-0.31077778,0.8994572,-0.05437144
-0.24191324,0.19158898,0.57286745,-0.0076233163,-0.5637307,0.3677844,0.6686102,0.34577876,-0.0019207759,-0.36811686,0.85494083,-0.3296532
-0.41716588,1.0491452,2.100739,-0.45703018,-1.7388774,1.5842711,1.2221622,0.8188582,0.1953912,-0.052751977,0.9291349,-0.2087978
1.0678695,1.9271197,1.7635536,-1.6637708,-0.36551315,2.0258107,0.24191381,1.2495724,1.1779243,1.0546088,1.537526,1.0601841
4.4068933,3.6218143,0.57286745,-4.2020874,2.9900262,2.6475704,-3.1485925,0.55054456,2.474546,3.2334933,3.080762,3.9137144
4.8311887,2.8323178,-1.1341338,-3.9108052,4.4766574,1.3860289,-4.1173086,-2.3867848,1.4920127,3.9108114,3.3330216,4.632133
0.16393493,-0.6591613,-1.2078931,0.33359298,0.93705904,-0.94782335,-0.81906104,-3.4459178,-1.6126307,0.32353565,0.9795868,0.67076105
-2.5663164,-1.1355815,1.1734791,1.8482606,-2.7441232,-0.2449644,0.7493365,-2.365602,-3.3481705,-2.3140614,-0.44197094,-1.8202033
-1.8745298,-1.1696115,0.33051544,1.5569783,-1.6680856,-0.63243794,1.7526497,-0.45210153,-2.051549,-1.6976665,-0.18971123,-1.55835
-1.4410101,-1.3805976,-0.49137408,1.498722,-0.77610654,-1.1190326,2.998142,0.31047434,-1.286462,-1.3249626,-0.008677772,-1.3770669
-0.9244761,-0.9518195,-0.41761476,0.99938095,-0.42214674,-0.81265813,2.7098334,0.47993562,-0.855597,-0.9092543,0.1871945,-0.994358
-0.011317696,0.007826903,0.024941133,0.0006990323,-0.02571169,0.016354939,1.3259531,0.52230096,-0.10661692,-0.28210825,0.5522292,-0.51765054
0.29306844,0.6680091,0.699312,-0.5402537,-0.252246,0.7372359,0.56481916,0.20456101,0.04640052,-0.045584593,0.75700474,-0.16851267
0.08092053,0.6203671,0.8679047,-0.41541845,-0.52125543,0.77327996,0.21884914,0.24692634,0.16720377,0.015338168,0.7748112,-0.04094306
0.108592,0.7769051,1.0786457,-0.5236089,-0.64868104,0.9715223,0.05739644,0.19750014,0.21552508,0.05475878,0.86977965,0.012770461
0.21927786,0.76329315,0.9311271,-0.5735431,-0.45046356,0.89943415,0.1496551,0.25398722,0.324248,0.13718368,0.8816507,0.07319816
0.2377255,0.7973231,0.96273816,-0.5901877,-0.4787803,0.9354782,0.091993436,0.25398722,0.35646215,0.15868583,0.86977965,0.106769115
0.32996374,0.81774116,0.8784418,-0.6484442,-0.35135475,0.91745615,0.13812278,0.268109,0.45713156,0.2590292,0.94397366,0.19405359
0.5144402,0.93344325,0.85736775,-0.8065688,-0.18145403,0.9805332,0.10352577,0.33871788,0.573908,0.33428672,1.0181677,0.2544813
0.6159022,0.98108524,0.8152196,-0.88147,-0.08234527,0.9985553,0.17271979,0.46581382,0.6383364,0.35937256,1.0775229,0.29476643
0.7358119,1.0083092,0.70984906,-0.9480487,0.08755547,0.9715223,0.21884914,0.59997076,0.7430326,0.44896486,1.1072006,0.29476643
0.83727396,1.0423392,0.6677009,-1.0146276,0.18666422,0.9715223,0.24191381,0.8117974,0.93631774,0.55647564,1.1309426,0.40219346
0.938736,1.0627573,0.57286745,-1.0812063,0.32824814,0.94448924,0.29957548,1.0518675,1.165844,0.6711537,1.1606202,0.5163347
1.1139886,1.1376232,0.4885711,-1.1977192,0.5123073,0.96251124,0.33417246,1.2354506,1.379263,0.8252525,1.2081044,0.6237617
1.1232125,1.1240113,0.45695996,-1.1977192,0.55478245,0.9354782,0.3803018,1.5390688,1.6852978,1.0223556,1.2526209,0.75804555
1.1508839,1.2261013,0.5834045,-1.2726203,0.48399046,1.0616324,0.40336648,1.7226518,1.9027437,1.1226989,1.2704273,0.7647598
1.1877792,1.2805494,0.62555265,-1.3225543,0.48399046,1.1156985,0.44949582,1.8144433,2.0356274,1.1836216,1.2793307,0.83861583
1.1785554,1.2397133,0.57286745,-1.289265,0.5123073,1.0616324,0.46102813,1.8285651,2.0678418,1.2087075,1.2526209,0.87218684
1.14166,1.2261013,0.59394157,-1.264298,0.48399046,1.0616324,0.3803018,1.7861997,2.0154936,1.1836216,1.2170078,0.8050449
1.1785554,1.1920712,0.50964516,-1.264298,0.55478245,1.0075663,0.28804314,1.6449821,1.8946902,1.1262827,1.1724913,0.77147394
1.0586456,1.1716533,0.6044786,-1.1977192,0.39904016,1.0345993,0.19578446,1.2989986,1.5806017,0.9721839,1.0864263,0.70433205
0.81882626,1.1444292,0.83629364,-1.072884,0.07339707,1.1156985,0.1496551,0.9388933,1.165844,0.8145014,1.0211354,0.67076105
0.8464978,1.1308173,0.78360844,-1.072884,0.11587226,1.0886654,0.08046111,0.59997076,0.7833003,0.61023104,0.9528769,0.57676244
0.71736425,0.9674732,0.6782379,-0.9147594,0.08755547,0.9264672,0.0458641,0.34577876,0.46518508,0.3880421,0.8638441,0.42233604
0.4406496,0.71565115,0.6044786,-0.6401219,-0.08234527,0.7372359,-0.011797569,0.1621957,0.1953912,0.24827813,0.7421659,0.24105293
0.26539698,0.5386951,0.5307193,-0.44870785,-0.15313724,0.5840487,-0.057926904,0.035099708,0.018213097,0.16585322,0.62345546,0.1201975
0.21005404,0.44341105,0.4464229,-0.36548433,-0.15313724,0.4849276,-0.0002652323,-0.056691833,-0.09856337,0.10851416,0.58784235,0.11348331
0.08092053,0.42979902,0.57286745,-0.29890552,-0.32303798,0.5299826,-0.0002652323,-0.12023982,-0.17104532,0.09417939,0.56113243,0.11348331
0.08092053,0.40257505,0.54125637,-0.28226084,-0.30887958,0.49393857,0.011267104,-0.09905715,-0.16701853,0.10134677,0.5284871,0.106769115
0.30229226,0.37535104,0.23568206,-0.37380666,0.07339707,0.34976238,0.05739644,-0.07787449,-0.1428579,0.10493046,0.504745,0.1201975
0.2746208,0.35493302,0.23568206,-0.34051728,0.059238672,0.33174038,0.05739644,-0.06375272,-0.12272401,0.0905957,0.48397067,0.10005493
0.25617313,0.33451504,0.21460795,-0.3238726,0.045080274,0.31371835,0.034331765,-0.042570055,-0.09453659,0.1336,0.46616408,0.059769794
0.21005404,0.307291,0.23568206,-0.2905832,0.0026050985,0.30470732,-0.0002652323,-0.014326502,-0.08245627,0.22677596,0.44242203,0.16048263
0.1547111,0.38215703,0.4148118,-0.30722788,-0.15313724,0.4218505,-0.0002652323,-0.08493538,-0.086483054,0.22677596,0.43945426,0.2477671
0.2377255,0.45702302,0.4464229,-0.39045137,-0.124820456,0.49393857,-0.04639458,-0.14848337,-0.078429505,0.22319229,0.44835752,0.2477671
0.26539698,0.44341105,0.38320068,-0.39045137,-0.06818687,0.45789453,-0.057926904,-0.09905715,-0.06634917,0.23035966,0.45132527,0.28133804
0.30229226,0.450217,0.35158953,-0.41541845,-0.011553299,0.44888353,-0.057926904,-0.06375272,-0.054268844,0.21960859,0.48990616,0.28805226
0.3207399,0.450217,0.3199784,-0.42374077,0.016763495,0.43987253,-0.115588576,-0.028448278,-0.042188525,0.26619658,0.5819068,0.314909
0.39453048,0.450217,0.24621908,-0.45703018,0.13003065,0.40382847,-0.15018559,0.020977937,-0.038161747,0.3020335,0.62939095,0.30819482
0.1916064,0.43660504,0.45695996,-0.34883964,-0.16729563,0.47591656,-0.19631495,0.028038826,-0.058295622,0.2948661,0.63235873,0.27462387
-0.011317696,0.40938106,0.6466268,-0.24897145,-0.43630514,0.5480047,-0.23091193,0.0068561593,-0.078429505,0.2984498,0.641262,0.28805226
0.09936818,0.41618705,0.54125637,-0.29890552,-0.2805628,0.5029496,-0.2885736,-0.014326502,-0.09453659,0.2984498,0.6501653,0.26119548
0.13626346,0.38896304,0.45695996,-0.29890552,-0.20977081,0.44888353,-0.26550892,-0.028448278,-0.11467048,0.2948661,0.65610087,0.2477671
0.18238257,0.37535104,0.38320068,-0.31555024,-0.124820456,0.41283947,-0.19631495,-0.056691833,-0.11064369,0.31278458,0.64422977,0.2477671
0.26539698,0.38896304,0.2989043,-0.357162,0.0026050985,0.38580644,-0.13865325,-0.06375272,-0.090509824,0.31278458,0.6382943,0.22091034
0.33918753,0.40938106,0.24621908,-0.40709606,0.101713866,0.3767954,-0.10405624,-0.06375272,-0.078429505,0.31636828,0.62939095,0.21419616
0.45909724,0.45702302,0.1829968,-0.49031958,0.2291394,0.3767954,-0.034862243,-0.06375272,-0.062322397,0.31278458,0.6204877,0.20748195
0.5144402,0.45702302,0.119774535,-0.5152866,0.31408978,0.35877338,-0.0002652323,-0.06375272,-0.05024207,0.32353565,0.6115844,0.22091034
0.39453048,0.5659191,0.42534885,-0.5319313,0.016763495,0.55701566,-0.08099159,-0.06375272,-0.0301082,0.42029533,0.6115844,0.20076777
0.49599254,0.78371114,0.65716386,-0.6983783,-0.06818687,0.800313,-0.19631495,-0.06375272,-0.026081424,0.49196917,0.6590686,0.34847996
0.6435737,0.81774116,0.54125637,-0.78992414,0.13003065,0.77327996,-0.26550892,-0.06375272,-0.005947551,0.5098876,0.6709396,0.5029063
0.44987342,0.78371114,0.70984906,-0.6817336,-0.13897885,0.818335,-0.41542926,-0.11317893,-0.005947551,0.5313898,0.6768752,0.3820509
0.57900697,0.73606914,0.47803408,-0.715023,0.11587226,0.6921809,-0.47309095,-0.1343616,0.018213097,0.5600593,0.691714,0.48947796
0.8003787,0.68842715,0.15138568,-0.7816018,0.4981489,0.52097166,-0.45002627,-0.17672691,0.018213097,0.50272024,0.6382943,0.63047594
0.6896928,0.504665,-0.006670003,-0.62347716,0.5264657,0.33174038,-0.40389696,-0.20497046,0.010159548,0.44896486,0.5344226,0.5834766
0.7358119,0.36173904,-0.28063318,-0.55689836,0.75299996,0.11547607,-0.3577676,-0.233214,-0.02205465,0.4310464,0.46913183,0.54990566
0.70814043,0.30048501,-0.34385547,-0.4986419,0.7671584,0.052398987,-0.34623525,-0.24027489,-0.08245627,0.49196917,0.56113243,0.5431915
0.43142578,0.13714094,-0.28063318,-0.27393848,0.5123073,-0.028700123,-0.23091193,-0.15554425,-0.038161747,0.5600593,0.5462937,0.4626212
0.11781581,0.028244909,-0.09096636,-0.06587976,0.15834744,-0.01968911,-0.31163827,-0.22615314,-0.10661692,0.5385571,0.46616408,0.30148062
0.025577594,-0.10106914,-0.18579978,0.050633132,0.14418906,-0.14584327,-0.057926904,-0.0708136,0.022239873,0.563643,0.48397067,0.22091034
0.1547111,0.15075296,0.05655227,-0.16574796,0.08755547,0.12448709,-0.31163827,-0.20497046,-0.1267508,0.5278061,0.4720996,0.314909
0.09936818,-0.5094293,-0.9023188,0.2670142,0.68220806,-0.71353704,0.35723713,0.3810832,0.18331087,0.54930824,0.48693845,0.2544813
-0.2234656,-0.19635315,-0.03828113,0.22540246,-0.13897885,-0.14584327,1.3951472,1.1012937,0.5900151,0.50272024,0.40977663,-0.04094306
0.16393493,1.2465193,1.7424794,-0.83985823,-1.0451162,1.566249,0.78393346,1.1648418,0.9121571,1.1943728,0.7124883,0.5700482
2.6359193,2.2401958,0.45695996,-2.5542622,1.7157708,1.6743811,-1.4418072,0.8188582,2.023547,3.5094376,2.3922412,3.477292
4.1670737,2.859542,-0.33331838,-3.6278453,3.4147782,1.7554803,-3.9327912,-1.6453915,1.093362,5.6489015,4.009671,6.196539
1.3814794,-0.22357719,-1.913875,-0.4819972,2.3528988,-0.9658454,-1.6609215,-2.5209415,-1.2582744,3.3481715,2.3536603,3.6585753
-1.5978152,-2.6056778,-2.2089124,2.314312,0.2716146,-2.6689267,1.1529683,-1.0805205,-2.5508692,-1.3034604,-0.4746163,-0.71236205
-1.7177248,-2.38108,-1.7347454,2.2310886,-0.15313724,-2.3174973,1.6257939,0.5929099,-1.7696749,-1.6761643,-0.7565537,-1.5113506
-1.136624,-2.700962,-2.8832831,2.1645095,1.0644847,-3.020356,2.9520125,1.962722,-0.5334551,-0.5257993,-0.25203422,-0.9675012
-0.71232814,-2.3674679,-2.8516722,1.7733594,1.3618109,-2.7860699,3.1595945,2.1110005,-0.15493822,-0.2140181,-0.07990405,-0.67879105
0.03480141,-1.3397616,-2.114079,0.8079669,1.4467614,-1.7858475,1.8449084,1.6873474,0.43297088,0.6173984,0.36526018,0.03962722
0.523664,-0.5911013,-1.5134674,0.12553427,1.4184445,-1.0289224,0.8992569,0.9318325,0.5779348,0.936347,0.59377784,0.5297631
0.42220193,-0.6319373,-1.4607822,0.20043541,1.3051773,-1.0379335,0.62248087,0.5858489,0.6302828,1.0904456,0.6768752,0.67076105
0.36685902,-0.5911013,-1.3343376,0.20043541,1.1777518,-0.9568344,0.55328685,0.50111836,0.71081835,1.2051238,0.8015211,0.79833066
0.37608284,-0.5366533,-1.2500412,0.15882367,1.1352767,-0.88474625,0.58788383,0.48699653,0.71081835,1.2302097,0.80448884,0.74461716
0.33918753,-0.5638773,-1.2605784,0.19211306,1.1069598,-0.9117793,0.5186898,0.52230096,0.7752468,1.3018836,0.8074566,0.6506185
0.2746208,-0.5502653,-1.1552079,0.20875776,0.99369264,-0.8487022,0.5186898,0.47287473,0.8155145,1.3628062,0.83713424,0.5901908
0.42220193,-0.63874334,-1.4713192,0.20043541,1.3051773,-1.0469445,0.5417545,0.57878804,0.9403445,1.4523985,0.90836054,0.9057577
0.70814043,-0.62513137,-1.7874305,0.06727783,1.7440875,-1.1730987,0.5763515,0.69882315,1.02088,1.563493,0.97661906,1.1810395
0.74503577,-0.5502653,-1.7031342,0.0006990323,1.7299293,-1.0829885,0.5763515,0.7623712,1.1255761,1.6817548,0.964748,1.1474686
0.71736425,-0.46178725,-1.5345415,-0.040912718,1.5883453,-0.9568344,0.5763515,0.8117974,1.2584598,1.7677635,1.0211354,1.1944679
0.8003787,-0.42095125,-1.5661527,-0.099169165,1.6732956,-0.94782335,0.5763515,0.9318325,1.4275843,1.9361969,1.0478454,1.2011821
0.87416923,-0.3801152,-1.5977638,-0.1574256,1.7440875,-0.92980134,0.5763515,1.1012937,1.6369765,2.0759609,1.0656519,1.2616098
0.99407893,-0.3392792,-1.6609861,-0.24064909,1.8856716,-0.92980134,0.5763515,1.270755,1.8624759,2.237227,1.1606202,1.4428929
1.2338983,-0.30524918,-1.892801,-0.36548433,2.2254732,-1.0109004,0.5763515,1.517886,2.1081095,2.4307463,1.1962334,1.5704625
1.2707936,-0.2712192,-1.882264,-0.40709606,2.2396317,-0.9838674,0.5763515,1.6379212,2.2530732,2.4988365,1.1873301,1.5503199
1.1601076,-0.26441318,-1.7347454,-0.36548433,2.0555723,-0.9117793,0.5763515,1.6873474,2.3376355,2.563343,1.1902978,1.7047464
1.095541,-0.26441318,-1.6609861,-0.33219492,1.9564636,-0.8757353,0.5763515,1.6732256,2.349716,2.527506,1.1902978,1.765174
1.0217503,-0.23038317,-1.5240043,-0.31555024,1.8148797,-0.80364716,0.56481916,1.5037643,2.184618,2.412828,1.1398458,1.6644613
0.9571836,-0.23038317,-1.4397081,-0.2905832,1.7157708,-0.7676031,0.5071575,1.3131204,1.9430114,2.2515619,1.0567486,1.590605
0.82805014,-0.23718916,-1.3132635,-0.22400439,1.5317117,-0.72254807,0.43796352,1.0377457,1.6047624,1.9505317,0.9795868,1.4160362
0.71736425,-0.29163718,-1.2711154,-0.1407809,1.4184445,-0.7405701,0.40336648,0.74118847,1.1900045,1.6602527,0.8668119,1.1877537
0.65279746,-0.37330922,-1.3238006,-0.06587976,1.404286,-0.81265813,0.34570482,0.49405745,0.8396751,1.3341367,0.73919815,0.96618545
0.5697831,-0.46859327,-1.3764857,0.03398843,1.3618109,-0.8937573,0.28804314,0.38814408,0.5819616,1.0689436,0.59674555,0.87890095
0.3207399,-0.67277336,-1.4080969,0.2670142,1.1919103,-1.0469445,0.28804314,0.35990053,0.39270315,0.9291796,0.5195838,0.8050449
0.11781581,-0.7884754,-1.3554118,0.4334612,1.0078511,-1.1010106,0.28804314,0.29635254,0.24773927,0.7894156,0.49287394,0.70433205
0.14548728,-0.7680574,-1.3554118,0.4084941,1.0361679,-1.0919995,0.28804314,0.25398722,0.16720377,0.703407,0.45429304,0.596905
0.11781581,-0.7748634,-1.3448747,0.42513883,0.99369264,-1.0829885,0.28804314,0.19750014,0.15915023,0.6639864,0.4246154,0.49619213
0.090144336,-0.7748634,-1.3027265,0.4334612,0.9512175,-1.0649666,0.28804314,0.1551348,0.1470699,0.6424842,0.4008733,0.48276377
0.090144336,-0.7748634,-1.3027265,0.4334612,0.9512175,-1.0649666,0.2765108,0.14807391,0.13498957,0.6173984,0.37713122,0.4626212
0.09936818,-0.74763936,-1.2711154,0.4168165,0.93705904,-1.0379335,0.23038144,0.14807391,0.12290924,0.5923125,0.34745362,0.44247866
0.13626346,-0.7068033,-1.2500412,0.37520474,0.9512175,-1.0018895,0.24191381,0.14807391,0.11485569,0.5708104,0.31184047,0.42233604
0.14548728,-0.67277336,-1.2078931,0.3502377,0.92290074,-0.9658454,0.19578446,0.14807391,0.10277537,0.5528919,0.2791951,0.40890765
0.1916064,-0.6319373,-1.197356,0.3003036,0.9512175,-0.92980134,0.17271979,0.14101303,0.09069505,0.5278061,0.24654971,0.3887651
0.06247288,-0.5979073,-0.9971522,0.34191534,0.7246832,-0.81265813,0.17271979,0.105708584,0.0826415,0.50272024,0.2406142,0.3820509
-0.14967503,-0.5638773,-0.70211494,0.4084941,0.35656494,-0.668482,0.13812278,0.08452593,0.0665344,0.48121813,0.2406142,0.3753367
-0.14045121,-0.5298473,-0.6494298,0.39184946,0.32824814,-0.63243794,0.10352577,0.056282375,0.06250762,0.45613223,0.22874315,0.34176576
-0.13122737,-0.4958173,-0.6178186,0.36688238,0.31408978,-0.58738285,0.06892877,0.028038826,0.04640052,0.4346301,0.22280762,0.35519412
-0.12200357,-0.46859327,-0.58620745,0.34191534,0.29993138,-0.5513388,0.034331765,0.0068561593,0.018213097,0.42029533,0.22577539,0.32833737
-0.12200357,-0.43456325,-0.53352225,0.32527065,0.2716146,-0.5152948,-0.0002652323,-0.014326502,-0.009974327,0.39879316,0.19313,0.314909
-0.103555925,-0.40053323,-0.5124482,0.29198125,0.2716146,-0.47925073,0.011267104,-0.035509165,-0.034134977,0.3844584,0.14267807,0.314909
-0.011317696,-0.37330922,-0.5756704,0.23372482,0.38488173,-0.48826173,0.05739644,-0.056691833,-0.06634917,0.37012362,0.09519388,0.28805226
0.08092053,-0.35969722,-0.6494298,0.18379071,0.4981489,-0.5152948,0.05739644,-0.07787449,-0.07440272,0.3522052,0.05067746,0.27462387
0.14548728,-0.33247322,-0.6810409,0.13385662,0.5689409,-0.50628376,0.05739644,-0.09905715,-0.054268844,0.3486215,0.012096559,0.28133804
0.1547111,-0.3120552,-0.65996677,0.11721192,0.5689409,-0.47925073,0.05739644,-0.09199626,-0.058295622,0.3522052,-0.02054882,0.314909
0.21927786,-0.27802518,-0.6810409,0.07560018,0.6397328,-0.47023973,0.05739644,-0.056691833,-0.046215303,0.3522052,-0.038355384,0.314909
0.22850168,-0.09426313,-0.40707773,-0.04923507,0.45567372,-0.23595339,-0.011797569,-0.06375272,-0.034134977,0.3522052,-0.05912972,0.32162318
0.17315875,0.08949893,-0.059355225,-0.13245855,0.17250583,0.034376964,-0.16171792,-0.06375272,-0.038161747,0.3522052,-0.07990405,0.34847996
0.16393493,0.09630493,-0.03828113,-0.13245855,0.14418906,0.04338798,-0.2539766,-0.10611804,-0.05024207,0.3486215,-0.106613904,0.34847996
0.30229226,0.19839498,-0.03828113,-0.2572938,0.2574562,0.11547607,-0.4615586,-0.26851848,-0.10661692,0.32353565,-0.11254943,0.33505157
0.44987342,0.30048501,-0.03828113,-0.39045137,0.37072337,0.17855316,-0.611479,-0.32500556,-0.1267508,0.30561718,-0.1155172,0.29476643
0.42220193,0.13714094,-0.27009615,-0.27393848,0.5123073,-0.028700123,-0.57688195,-0.38149267,-0.19117919,0.26978028,-0.16596913,0.27462387
0.39453048,-0.14190514,-0.6705038,-0.090846814,0.75299996,-0.38012958,-0.41542926,-0.3532491,-0.19117919,0.2088575,-0.20455004,0.24105293
0.2838446,-0.14871114,-0.55459636,-0.032590367,0.5972576,-0.33507454,-0.3923646,-0.423858,-0.22742015,0.122848906,-0.2223566,0.17391102
0.13626346,-0.29163718,-0.6072816,0.11721192,0.5123073,-0.44320667,-0.2539766,-0.4026753,-0.2556076,0.06550985,-0.27577633,0.059769794
-0.011317696,-0.33247322,-0.50191116,0.20875776,0.32824814,-0.43419567,-0.21937957,-0.4167971,-0.31198242,-0.02049875,-0.33513156,-0.047657244
-0.0943321,-0.3801152,-0.48083705,0.27533653,0.2574562,-0.4522177,-0.18478258,-0.43797973,-0.34822342,-0.02408244,-0.35293812,-0.08794238
-0.0943321,-0.40053323,-0.50191116,0.28365892,0.2716146,-0.47023973,-0.057926904,-0.36031,-0.31198242,-0.07783782,-0.39151898,-0.18194105
-0.08510828,-0.2848312,-0.34385547,0.20875776,0.17250583,-0.3260635,-0.20784725,-0.54389304,-0.44083926,-0.08858889,-0.35887367,-0.18194105
-0.38027057,-0.7612514,-0.7442631,0.63319755,0.214981,-0.82166916,0.73780423,0.28223076,0.034320194,-0.12442582,-0.5310038,-0.47065115
-0.62931377,0.266455,1.131331,0.11721192,-1.2433337,0.6561368,1.0607096,0.67764044,0.31619442,-0.03841721,-0.50132614,-0.4102235
0.6989166,1.5732075,1.637109,-1.2809427,-0.5637307,1.7374582,0.034331765,0.7341276,0.9806123,1.2051238,0.380099,0.9191861
3.5398538,2.852736,0.3726636,-3.336563,2.466166,2.0438328,-2.9410102,-0.3038229,1.6329498,3.7244594,2.2408855,4.1151404
3.991821,2.3422856,-0.9339299,-3.2283723,3.6837876,1.1517425,-4.5324726,-2.8316207,0.16720377,5.0647597,3.1876013,5.874258
0.13626346,-1.4894936,-2.4723384,0.8495787,1.7724044,-2.0381558,-1.1534988,-2.8528035,-2.2448344,1.1191152,0.57300353,1.798745
-2.5017498,-2.830276,-1.5240043,2.8635871,-0.8893737,-2.5247505,0.9915155,-1.2782253,-3.2233405,-2.855199,-1.7744958,-2.0014865
-1.9667681,-2.5648417,-1.7242084,2.455792,-0.35135475,-2.4256294,1.6834557,0.2751699,-1.983094,-2.0954564,-1.498494,-2.021629
-1.4963531,-2.58526,-2.2932088,2.2560556,0.39904016,-2.6869485,2.8943508,1.2072071,-1.0770696,-1.3823017,-1.1987501,-1.6523485
-0.8414617,-1.7072856,-1.6715231,1.4238207,0.48399046,-1.8399136,2.3292663,1.1789635,-0.59788346,-0.9056706,-0.8693286,-1.0413574
-0.38949442,-0.6795794,-0.6072816,0.5915858,0.11587226,-0.70452607,0.85312754,0.57878804,-0.09453659,-0.26418978,-0.53990704,-0.61164916
-0.37104675,-0.20315915,0.10923749,0.29198125,-0.35135475,-0.08276619,0.40336648,-0.014326502,-0.078429505,-0.20685074,-0.45680973,-0.51765054
-0.25113708,-0.09426313,0.14084864,0.16714601,-0.2805628,-0.0016670856,0.39183417,-0.14848337,0.022239873,-0.08142151,-0.39745453,-0.4169377
-0.36182296,-0.10106914,0.2567561,0.22540246,-0.45046356,0.04338798,0.32264015,-0.16260514,0.058480844,-0.034833517,-0.40339005,-0.36322418
-0.26958472,-0.2848312,-0.13311453,0.3003036,-0.110662065,-0.2449644,0.3111078,-0.07787449,0.15512344,0.044007704,-0.37074468,-0.2826539
-0.15889885,-0.2576072,-0.21741089,0.23372482,0.030921891,-0.26298642,0.23038144,-0.056691833,0.23163217,0.058342464,-0.36480916,-0.22894037
-0.0943321,-0.23718916,-0.27009615,0.19211306,0.11587226,-0.27199745,0.25344613,0.0068561593,0.3000873,0.10134677,-0.34403482,-0.15508428
0.0071299463,-0.22357719,-0.3543925,0.13385662,0.2574562,-0.29903048,0.28804314,0.035099708,0.37256926,0.15868583,-0.329196,-0.101370774
0.06247288,-0.19635315,-0.3754666,0.10056722,0.29993138,-0.29001945,0.32264015,0.119830355,0.47323865,0.2088575,-0.30248618,-0.06108563
0.12703963,-0.19635315,-0.44922587,0.058955476,0.39904016,-0.3170525,0.34570482,0.21868278,0.61417574,0.29128242,-0.2698408,-0.0073721083
0.18238257,-0.16912916,-0.45976296,0.02566608,0.45567372,-0.30804148,0.3803018,0.331657,0.7671932,0.40237686,-0.24313094,0.13362586
0.29306844,-0.14871114,-0.5651334,-0.040912718,0.61141604,-0.33507454,0.41489884,0.55054456,1.0047729,0.5313898,-0.20158228,0.23433872
0.39453048,-0.13509914,-0.65996677,-0.099169165,0.75299996,-0.3711186,0.43796352,0.76943195,1.2222188,0.68907225,-0.16596913,0.32162318
0.4406496,-0.10787514,-0.6705038,-0.13245855,0.7954751,-0.35309657,0.5071575,0.96007603,1.4879858,0.8395873,-0.12145271,0.3753367
0.44987342,-0.09426313,-0.6705038,-0.14910325,0.80963355,-0.34408554,0.5071575,1.1224765,1.7014049,0.9578491,-0.08287182,0.44247866
0.4867687,-0.073845126,-0.6705038,-0.1740703,0.823792,-0.33507454,0.46102813,1.2989986,1.8463689,1.051025,-0.08583957,0.53647727
0.50521636,-0.06023312,-0.65996677,-0.190715,0.8379503,-0.3260635,0.42643115,1.3696074,1.914824,1.0331066,-0.07990405,0.49619213
0.55133545,-0.033009112,-0.69157785,-0.22400439,0.8945839,-0.3170525,0.40336648,1.3201813,1.8503956,0.9721839,-0.10958167,0.47604957
0.59745455,-0.019397108,-0.71265197,-0.2572938,0.9512175,-0.3170525,0.35723713,1.1083547,1.7215388,0.8790079,-0.16893691,0.45590702
0.44987342,-0.14190514,-0.733726,-0.115813866,0.8521087,-0.4071626,0.33417246,0.7764929,1.3752362,0.7213254,-0.19861451,0.42233604
0.1916064,-0.30524918,-0.69157785,0.10888957,0.61141604,-0.49727276,0.39183417,0.5081791,0.96450514,0.50272024,-0.24313094,0.40890765
0.0071299463,-0.5979073,-0.9339299,0.35856006,0.6397328,-0.7856251,0.40336648,0.29635254,0.6061222,0.26978028,-0.28764737,0.30148062
0.0071299463,-0.8429234,-1.3132635,0.50836235,0.8945839,-1.1100216,0.40336648,0.12689124,0.27592668,0.06909354,-0.3380993,0.16048263
-0.048212986,-1.0471035,-1.5556155,0.666487,1.0078511,-1.3533189,0.40336648,0.0139170475,0.038346972,-0.09575628,-0.40635782,0.053055603
-0.25113708,-1.3261496,-1.7663565,0.93280214,0.99369264,-1.6326603,0.40336648,-0.0708136,-0.13883111,-0.23910394,-0.45680973,-0.05437144
-0.38949442,-1.4418516,-1.7874305,1.0576375,0.9087423,-1.7137594,0.41489884,-0.17672691,-0.2556076,-0.37528425,-0.51022947,-0.11479914
-0.47250882,-1.5575536,-1.871727,1.165828,0.8945839,-1.8309026,0.5186898,-0.22615314,-0.29184857,-0.43262333,-0.5577136,-0.16179848
-0.41716588,-1.6528378,-2.0824678,1.1991174,1.0786431,-1.9840899,0.62248087,-0.18378781,-0.2757415,-0.436207,-0.5666169,-0.2087978
-0.3433753,-1.7004796,-2.2299864,1.1991174,1.2343854,-2.0742,0.64554554,-0.14848337,-0.27976826,-0.4397907,-0.57255244,-0.22222619
-0.38027057,-1.7685397,-2.3037457,1.2573738,1.2627021,-2.155299,0.6801425,-0.12730071,-0.26366115,-0.43262333,-0.5844235,-0.22222619
-0.40794206,-1.7821517,-2.3037457,1.2823408,1.2343854,-2.16431,0.7032072,-0.09199626,-0.25963438,-0.4397907,-0.59035903,-0.22222619
-0.37104675,-1.7685397,-2.3142827,1.2573738,1.2768606,-2.16431,0.7493365,-0.06375272,-0.25963438,-0.43262333,-0.5844235,-0.22222619
-0.30648002,-1.7481215,-2.356431,1.2074398,1.3476526,-2.16431,0.73780423,-0.06375272,-0.24352726,-0.42187223,-0.56958467,-0.22222619
-0.27880853,-1.7345097,-2.356431,1.1824727,1.3759693,-2.155299,0.6801425,-0.06375272,-0.23547372,-0.41112116,-0.5606814,-0.21551201
-0.27880853,-1.7072856,-2.3248198,1.1741503,1.3618109,-2.1192548,0.7032072,-0.06375272,-0.21936661,-0.4039538,-0.54881036,-0.18194105
-0.27880853,-1.6936737,-2.3037457,1.165828,1.3334942,-2.101233,0.65707785,-0.06375272,-0.21131305,-0.38961902,-0.5369393,-0.16179848
-0.28803235,-1.6732557,-2.2615976,1.1575056,1.3051773,-2.0742,0.62248087,-0.06375272,-0.19520597,-0.38245162,-0.528036,-0.1416559
-0.27880853,-1.6596438,-2.2405236,1.1408609,1.3051773,-2.0561779,0.6340132,-0.07787449,-0.21131305,-0.38961902,-0.51913273,-0.108084954
-0.32492766,-1.6596438,-2.1983755,1.165828,1.2343854,-2.0381558,0.58788383,-0.11317893,-0.21936661,-0.4039538,-0.51319724,-0.08794238
-0.32492766,-1.6596438,-2.1983755,1.165828,1.2343854,-2.0381558,0.5763515,-0.1343616,-0.21936661,-0.41112116,-0.51913273,-0.08794238
-0.2603609,-1.6596438,-2.2721348,1.1325386,1.3334942,-2.065189,0.5763515,-0.15554425,-0.21936661,-0.42187223,-0.51022947,-0.08794238
-0.27880853,-1.6596438,-2.2510605,1.1408609,1.3051773,-2.0561779,0.5186898,-0.1908487,-0.21936661,-0.43262333,-0.528036,-0.081228204
-0.3157038,-1.6868677,-2.2510605,1.1741503,1.2768606,-2.083211,0.5186898,-0.20497046,-0.25963438,-0.436207,-0.5962945,-0.09465659
-0.3525991,-1.7004796,-2.2299864,1.1991174,1.2343854,-2.083211,0.5071575,-0.17672691,-0.26366115,-0.45770916,-0.62597215,-0.12151334
-0.41716588,-1.7277036,-2.2089124,1.2490515,1.1777518,-2.083211,0.46102813,-0.15554425,-0.25963438,-0.46487656,-0.6141011,-0.12151334
-0.44483736,-1.7413156,-2.1773012,1.2740184,1.1211182,-2.083211,0.46102813,-0.1343616,-0.2556076,-0.4397907,-0.63190764,-0.12151334
-0.4356135,-1.7685397,-2.2405236,1.2823408,1.1777518,-2.1282659,0.46102813,-0.12023982,-0.23547372,-0.42187223,-0.6615853,-0.12151334
-0.27880853,-1.7004796,-2.3142827,1.165828,1.3476526,-2.1192548,0.46102813,-0.09199626,-0.23950048,-0.4039538,-0.64377874,-0.12151334
-0.12200357,-1.3805976,-1.9981714,0.8995127,1.2485437,-1.7678255,0.46102813,-0.12023982,-0.23950048,-0.37886795,-0.62003666,-0.108084954
-0.103555925,-1.2444775,-1.8085047,0.8079669,1.1352767,-1.5876052,0.41489884,-0.16260514,-0.23950048,-0.36811686,-0.6051978,-0.08794238
-0.08510828,-1.2512835,-1.8401158,0.79964453,1.1777518,-1.6056272,0.28804314,-0.19790958,-0.23950048,-0.37886795,-0.58145577,-0.07451401
-0.1773465,-1.2512835,-1.7452824,0.8495787,1.0361679,-1.5695832,0.17271979,-0.24733579,-0.24352726,-0.38603532,-0.578488,-0.047657244
-0.057436813,-1.2444775,-1.8611898,0.79132223,1.220227,-1.6236492,0.18425213,-0.26145756,-0.23547372,-0.4039538,-0.5992623,-0.04094306
0.24694934,-1.3057315,-2.2932088,0.691454,1.7299293,-1.8399136,0.1496551,-0.296762,-0.24755405,-0.4039538,-0.5992623,-0.0073721083
0.03480141,-1.5643597,-2.4618013,0.9411245,1.687454,-2.083211,0.2073168,-0.25439668,-0.27976826,-0.45770916,-0.64081097,-0.06779982
-0.057436813,-1.5575536,-2.3458939,0.9827362,1.5317117,-2.0381558,0.12659045,-0.3532491,-0.34419665,-0.5257993,-0.6675208,-0.108084954
-0.029765341,-1.6256137,-2.4723384,1.0077033,1.6449789,-2.1282659,0.26497847,-0.26851848,-0.31198242,-0.51863194,-0.6912629,-0.20208363
-0.0943321,-1.5847776,-2.335357,1.0160255,1.503395,-2.0471668,0.32264015,-0.33206645,-0.41265184,-0.57238734,-0.71797276,-0.29608226
-0.25113708,-1.7821517,-2.4723384,1.2074398,1.4750781,-2.2363982,0.44949582,-0.233214,-0.38849115,-0.58313835,-0.73281157,-0.39008093
-0.32492766,-1.7889576,-2.4091163,1.2407291,1.3759693,-2.2093651,0.42643115,-0.21909225,-0.39654472,-0.63331,-0.7565537,-0.39679512
-0.2603609,-1.8025696,-2.4934125,1.2240844,1.4750781,-2.2544203,0.3111078,-0.26851848,-0.39654472,-0.6153916,-0.75358593,-0.36993837
-0.7584473,-2.0952277,-2.377505,1.6235572,1.0220095,-2.3985963,1.5335354,0.72000575,0.07458795,-0.6655633,-0.9227484,-0.7862181
-0.6477614,-0.9041774,-0.65996677,0.8495787,-0.039870083,-0.8757353,1.8103113,0.8471018,0.22357862,-0.38603532,-0.68235964,-0.42365184
1.0863172,0.34812704,-0.69157785,-0.6983783,1.291019,-0.06474417,0.3687695,1.143659,1.2745668,1.0331066,0.317776,1.3220375
4.1394024,2.0700457,-1.5240043,-3.1368268,4.1934896,0.71921384,-3.275448,-0.3532491,1.9269043,3.563193,2.0806262,4.484421
3.9088068,0.7292631,-3.3363764,-2.2047234,5.241211,-0.9388124,-4.0365825,-3.191726,0.1470699,4.014738,2.2497888,4.9007006
-0.6477614,-3.4972641,-4.6745806,2.4308248,2.650225,-4.308931,0.06892877,-2.881047,-2.6434848,-0.5329667,-0.66455305,0.24105293
-2.6308832,-4.3412085,-3.7051728,3.8456242,0.46983215,-4.453107,1.764182,-1.4194431,-3.501188,-3.367667,-2.2166924,-2.4580514
-2.1604683,-4.1438346,-3.947525,3.5127301,0.99369264,-4.426074,2.7790275,0.09864769,-2.0394688,-2.3033104,-1.7923025,-2.0753424
-1.8468583,-3.8784,-3.8948395,3.2048032,1.2060685,-4.227832,3.932261,0.9741978,-1.2059265,-1.8015935,-1.5459783,-1.7194904
-0.9429238,-2.762216,-3.1993947,2.1228979,1.4326029,-3.2005763,2.8136244,1.0518675,-0.5415086,-1.1601127,-1.1215883,-1.068214
-0.3987182,-1.8638237,-2.4301903,1.3239527,1.3334942,-2.2724423,1.6719233,0.8047365,-0.062322397,-0.6978165,-0.8960385,-0.6586485
-0.4263897,-1.5643597,-1.9349492,1.1491833,0.9795343,-1.8579355,1.4758736,0.44463122,-0.014001098,-0.62972635,-0.8010701,-0.49079376
-0.3987182,-1.4962996,-1.8611898,1.0992491,0.93705904,-1.7858475,1.3490179,0.40932673,0.11888247,-0.51504827,-0.76248926,-0.42365184
-0.38027057,-1.3874036,-1.7136712,1.024348,0.86626714,-1.6506823,1.1990975,0.3810832,0.10680214,-0.51146454,-0.7595214,-0.4102235
-0.37104675,-1.3737916,-1.7031342,1.0077033,0.86626714,-1.6326603,1.1990975,0.40226588,0.20747152,-0.42545593,-0.7239083,-0.3497958
-0.3525991,-1.2853135,-1.5977638,0.94944686,0.80963355,-1.533539,1.2106298,0.38814408,0.26787314,-0.38961902,-0.71797276,-0.3296532
-0.32492766,-1.2444775,-1.5450785,0.90783507,0.7954751,-1.479473,1.2106298,0.39520496,0.35646215,-0.31436148,-0.6882952,-0.2893681
-0.27880853,-1.1628056,-1.4818562,0.8329339,0.7813168,-1.398374,1.2682916,0.45875293,0.4611583,-0.24985504,-0.6764241,-0.24236874
-0.21424177,-1.1015515,-1.450245,0.77467746,0.80963355,-1.3443079,1.2682916,0.5576053,0.5618277,-0.18893227,-0.64081097,-0.18865523
-0.14045121,-1.0266855,-1.4291711,0.691454,0.8521087,-1.2902418,1.2798239,0.67057955,0.68263096,-0.14592797,-0.60816556,-0.13494171
-0.08510828,-0.9654315,-1.3870229,0.6248752,0.86626714,-1.2271647,1.3374856,0.84004086,0.87188935,-0.045584593,-0.5547459,-0.081228204
0.016353771,-0.87014735,-1.3659488,0.53332937,0.93705904,-1.1640877,1.3144209,1.0589284,1.1134958,0.0905957,-0.5221005,-0.027514677
0.2377255,-0.69319135,-1.3448747,0.32527065,1.0928015,-1.0289224,1.3836149,1.2989986,1.3832897,0.22677596,-0.4835196,0.053055603
0.3576352,-0.5842953,-1.3132635,0.20043541,1.149435,-0.94782335,1.4758736,1.5955559,1.6450301,0.38087472,-0.41822883,0.1201975
0.39453048,-0.5230413,-1.2605784,0.14217897,1.1635934,-0.88474625,1.4182118,1.7791389,1.8624759,0.48480177,-0.40932554,0.24105293
0.46832108,-0.44817528,-1.2289672,0.06727783,1.1919103,-0.82166916,1.3490179,1.8779913,2.0114665,0.517055,-0.41229331,0.27462387
0.523664,-0.3801152,-1.1868191,0.0006990323,1.2060685,-0.75859207,1.2913562,1.8426868,1.9953595,0.48121813,-0.41229331,0.21419616
0.5144402,-0.35969722,-1.1446708,-0.0076233163,1.1635934,-0.72254807,1.2221622,1.7085302,1.9671721,0.45254856,-0.43009987,0.1806252
0.50521636,-0.37330922,-1.1446708,0.009021382,1.1635934,-0.7315591,1.1760329,1.5673124,1.8020743,0.41312793,-0.4211966,0.12691168
0.5144402,-0.35969722,-1.1446708,-0.0076233163,1.1635934,-0.72254807,1.0607096,1.2283897,1.3913434,0.24469443,-0.43900317,0.09334074
0.37608284,-0.46859327,-1.1446708,0.12553427,1.0644847,-0.79463613,0.87619215,0.8047365,0.9443713,0.015338168,-0.5072617,0.03291303
0.16393493,-0.61832535,-1.1446708,0.30862594,0.8945839,-0.8937573,0.6916749,0.45875293,0.5014261,-0.2140181,-0.58145577,-0.11479914
-0.057436813,-0.7816694,-1.1446708,0.50836235,0.73884153,-1.0109004,0.6340132,0.19043924,0.15512344,-0.45412546,-0.6853274,-0.30279645
-0.20501797,-0.99265546,-1.3027265,0.70809865,0.7246832,-1.2091427,0.6340132,0.0139170475,-0.090509824,-0.622559,-0.7476504,-0.39008093
-0.26958472,-1.0879395,-1.3659488,0.79132223,0.7105248,-1.2992529,0.6340132,-0.0708136,-0.2717147,-0.726486,-0.78326356,-0.51765054
-0.3433753,-1.1423875,-1.3870229,0.85790104,0.66804963,-1.3443079,0.6340132,-0.10611804,-0.37238407,-0.8160783,-0.84261876,-0.6519343
-0.40794206,-1.2172536,-1.418634,0.9244798,0.6538912,-1.407385,0.6340132,-0.14142248,-0.42473215,-0.85908264,-0.890103,-0.6653627
-0.3987182,-1.2308655,-1.450245,0.93280214,0.66804963,-1.425407,0.6801425,-0.18378781,-0.42473215,-0.8841685,-0.9138451,-0.69221944
-0.3433753,-1.2036415,-1.4713192,0.89119035,0.7246832,-1.416396,0.6916749,-0.21909225,-0.42070538,-0.912838,-0.9138451,-0.71236205
-0.38949442,-1.1900295,-1.3975599,0.8995127,0.6397328,-1.380352,0.6916749,-0.26145756,-0.41667858,-0.912838,-0.97023255,-0.74593294
-0.3987182,-1.1628056,-1.3448747,0.89119035,0.5972576,-1.3443079,0.6916749,-0.27557933,-0.4005715,-0.89133584,-1.0117812,-0.7593613
-0.4356135,-1.1491935,-1.2816525,0.8995127,0.5264657,-1.3082639,0.6916749,-0.27557933,-0.40459827,-0.8734174,-0.98507136,-0.71236205
-0.463285,-1.1355815,-1.2289672,0.90783507,0.46983215,-1.2722198,0.6801425,-0.27557933,-0.39251795,-0.8626663,-0.97023255,-0.6855053
-0.463285,-1.0947455,-1.1657449,0.88286805,0.4273569,-1.2181537,0.62248087,-0.27557933,-0.3804376,-0.84474784,-0.94945824,-0.6452201
-0.4356135,-1.0675216,-1.1657449,0.8495787,0.45567372,-1.2001317,0.58788383,-0.27557933,-0.3804376,-0.82682943,-0.9286839,-0.59822077
-0.27880853,-1.0402975,-1.2921894,0.76635516,0.6538912,-1.2361758,0.55328685,-0.24733579,-0.3804376,-0.8160783,-0.9108773,-0.604935
-0.3433753,-1.0062675,-1.1657449,0.77467746,0.5264657,-1.1640877,0.49562517,-0.24027489,-0.3804376,-0.8053273,-0.89307076,-0.6452201
-0.40794206,-0.98584944,-1.0603745,0.79132223,0.39904016,-1.1010106,0.46102813,-0.24027489,-0.3804376,-0.79457617,-0.8782319,-0.6317918
-0.32492766,-0.9518195,-1.1025226,0.7330658,0.48399046,-1.1010106,0.46102813,-0.24027489,-0.4005715,-0.7838251,-0.86042535,-0.61164916
-0.3157038,-0.93820745,-1.0814486,0.71642107,0.48399046,-1.0829885,0.46102813,-0.24733579,-0.4005715,-0.7766577,-0.8455866,-0.59822077
-0.24191324,-0.91098344,-1.1341338,0.666487,0.58309925,-1.0829885,0.46102813,-0.21909225,-0.40459827,-0.76949036,-0.8307478,-0.571364
-0.18657032,-0.87695336,-1.1446708,0.6248752,0.62557447,-1.0649666,0.46102813,-0.20497046,-0.42070538,-0.75873923,-0.82777995,-0.55793566
-0.20501797,-0.8905654,-1.1446708,0.64151996,0.61141604,-1.0739776,0.46102813,-0.20497046,-0.42070538,-0.74798816,-0.82777995,-0.54450727
-0.2234656,-0.85653543,-1.0709115,0.6248752,0.55478245,-1.0199114,0.44949582,-0.20497046,-0.41265184,-0.7372371,-0.8129412,-0.5243647
-0.27880853,-0.82931143,-0.95500404,0.63319755,0.4273569,-0.9568344,0.35723713,-0.20497046,-0.39251795,-0.72290236,-0.8129412,-0.5243647
-0.19579415,-0.6795794,-0.82855946,0.50003994,0.39904016,-0.79463613,0.2765108,-0.20497046,-0.37641084,-0.72290236,-0.8099735,-0.49750793
0.04402523,-0.3392792,-0.5756704,0.19211306,0.4273569,-0.47023973,0.19578446,-0.24733579,-0.3683573,-0.7372371,-0.7951346,-0.48407957
0.13626346,-0.23038317,-0.5124482,0.08392253,0.45567372,-0.36210757,0.10352577,-0.25439668,-0.34419665,-0.74082077,-0.8010701,-0.49750793
0.18238257,-0.19635315,-0.5124482,0.04231078,0.48399046,-0.34408554,0.034331765,-0.31088376,-0.34419665,-0.7444045,-0.7891991,-0.48407957
0.25617313,-0.13509914,-0.50191116,-0.024268012,0.5406241,-0.29903048,-0.08099159,-0.38855353,-0.37641084,-0.75873923,-0.78326356,-0.49750793
0.24694934,-0.21677117,-0.6072816,0.02566608,0.5972576,-0.3981516,-0.31163827,-0.43091887,-0.4327857,-0.75515556,-0.7802958,-0.47736537
0.12703963,-0.5162353,-0.944467,0.25869185,0.73884153,-0.7405701,-0.23091193,-0.40973622,-0.45291957,-0.76949036,-0.8010701,-0.5109363
-0.011317696,-0.64554936,-0.9866152,0.4001718,0.6538912,-0.8487022,-0.13865325,-0.4167971,-0.50124085,-0.81966203,-0.8485543,-0.5646499
-0.057436813,-0.6795794,-0.9866152,0.44178352,0.62557447,-0.8757353,-0.04639458,-0.43797973,-0.517348,-0.8160783,-0.8574576,-0.61164916
-0.1773465,-0.7544454,-0.965541,0.5416517,0.5123073,-0.9117793,0.091993436,-0.38149267,-0.5052676,-0.85908264,-0.9108773,-0.7257904
-0.3525991,-0.7884754,-0.81802243,0.64151996,0.28577298,-0.86672425,0.091993436,-0.48034513,-0.57372284,-0.9020869,-0.9583615,-0.7257904
-0.50018024,-0.9994615,-0.965541,0.84125626,0.2716146,-1.0739776,0.3111078,-0.31794468,-0.481107,-0.9092543,-1.0236523,-0.9003594
-0.5186279,-0.7612514,-0.58620745,0.69977635,0.0026050985,-0.75859207,0.16118744,-0.56507576,-0.59788346,-0.9379238,-1.02662,-0.8667884
-0.6016423,-1.1764175,-1.1446708,0.9910586,0.31408978,-1.2632087,0.87619215,0.0139170475,-0.34016988,-0.948675,-1.1453304,-1.0212147
-0.8322379,-0.72722137,-0.1752627,0.8246116,-0.52125543,-0.5603498,1.4412766,0.8894671,-0.09856337,-0.85549897,-1.1423627,-1.0883566
-0.048212986,0.6135611,1.0048864,-0.34883964,-0.71947306,0.83635706,0.9569185,1.087172,0.50947964,-0.05991936,-0.54881036,-0.07451401
2.9034102,2.1381056,-0.006670003,-2.6125188,2.2254732,1.4130619,-1.5571305,0.7553103,1.9027437,1.9541154,0.828231,2.4634497
5.006441,2.8119,-1.3764857,-3.9773839,4.7598257,1.2688856,-4.6477957,-2.0761056,1.4920127,3.9466484,2.1073363,4.8872724
1.8242228,-0.8905654,-3.4628208,-0.27393848,3.7262626,-2.0742,-2.237538,-3.6789272,-1.2461942,1.470317,0.36526018,2.080741
-2.391064,-3.3339202,-2.4301903,3.12158,-0.19561243,-3.2456315,0.9453862,-2.6621594,-3.694473,-2.9698772,-2.2048213,-2.236483
-2.7046735,-3.034456,-1.6083007,3.0799682,-0.9884826,-2.6959598,1.7295849,-1.052277,-2.9938145,-3.1132247,-2.2997897,-2.6997623
-2.1604683,-3.12974,-2.388042,2.888554,-0.039870083,-3.0924442,3.1711268,0.22574367,-1.6851126,-2.192216,-1.9169486,-2.3170533
-1.6531581,-2.4083037,-1.8401158,2.2227662,-0.02571169,-2.3805742,3.2864504,0.65645784,-1.1576052,-1.8481816,-1.673592,-1.8806311
-0.8875808,-1.3533736,-1.0919856,1.2324067,0.059238672,-1.36233,1.6949879,0.62115335,-0.3321163,-1.1242758,-1.2848153,-1.2696397
-0.6754329,-0.74763936,-0.38600364,0.7580328,-0.252246,-0.65045995,0.9569185,0.1551348,-0.17507209,-0.9307564,-1.1156528,-1.0077863
-0.38949442,-0.5706833,-0.43868884,0.53332937,0.0026050985,-0.5603498,0.85312754,0.14101303,-0.090509824,-0.81249464,-1.0503621,-0.8667884
-0.3157038,-0.4277573,-0.29117024,0.4084941,-0.039870083,-0.4071626,0.6109485,0.1621957,0.0021059995,-0.7766577,-1.0236523,-0.85335994
-0.3433753,-0.38692123,-0.20687386,0.39184946,-0.124820456,-0.34408554,0.58788383,0.13395214,0.0504273,-0.73365337,-0.97023255,-0.7929323
-0.32492766,-0.37330922,-0.1963368,0.37520474,-0.110662065,-0.3260635,0.5763515,0.1621957,0.13096279,-0.6870654,-0.93758714,-0.75264716
-0.33415148,-0.3256672,-0.12257749,0.3502377,-0.18145403,-0.26298642,0.55328685,0.14101303,0.1470699,-0.66914696,-0.89900625,-0.71236205
-0.30648002,-0.3120552,-0.13311453,0.33359298,-0.13897885,-0.26298642,0.5186898,0.21162191,0.24371248,-0.6046405,-0.86339307,-0.6720769
-0.2972562,-0.24399517,-0.03828113,0.28365892,-0.19561243,-0.18188733,0.5186898,0.2610481,0.36451572,-0.5401341,-0.8307478,-0.61164916
-0.16812268,-0.15551715,-0.04881818,0.16714601,-0.09650367,-0.118810244,0.56481916,0.36696145,0.5014261,-0.46129286,-0.7773281,-0.5377931
-0.048212986,-0.053427115,-0.027744086,0.058955476,-0.011553299,-0.04672214,0.62248087,0.5081791,0.6665238,-0.38245162,-0.7061017,-0.47736537
0.090144336,0.035050914,-0.03828113,-0.06587976,0.08755547,0.007343928,0.6686102,0.7341276,0.87188935,-0.2606061,-0.64377874,-0.4035093
0.21927786,0.13714094,-0.03828113,-0.18239266,0.18666422,0.07042102,0.7032072,0.9388933,1.1134958,-0.1315932,-0.6051978,-0.33636743
0.31151608,0.20520097,-0.03828113,-0.26561615,0.2574562,0.11547607,0.78393346,1.2001462,1.3752362,-0.0025802918,-0.5666169,-0.2759397
0.44987342,0.30048501,-0.04881818,-0.38212904,0.37072337,0.17855316,0.7724012,1.4755208,1.6248963,0.1336,-0.5072617,-0.18194105
0.50521636,0.36854503,-0.006670003,-0.44870785,0.38488173,0.24163024,0.7032072,1.6167386,1.8302617,0.24827813,-0.50132614,-0.0140863
0.39453048,0.34812704,0.088163406,-0.39045137,0.2432978,0.2686633,0.65707785,1.7014692,1.8584492,0.2518618,-0.5250683,0.012770461
0.31151608,0.34812704,0.1829968,-0.357162,0.11587226,0.30470732,0.5994162,1.6237994,1.8141546,0.20527382,-0.53990704,-0.06108563
0.22850168,0.34132102,0.2567561,-0.31555024,0.0026050985,0.33174038,0.55328685,1.3907902,1.7255657,0.15510215,-0.5962945,-0.101370774
0.06247288,0.30048501,0.3937377,-0.21568206,-0.22392921,0.3677844,0.49562517,1.0801111,1.3913434,0.047591392,-0.64971423,-0.16179848
0.08092053,0.33451504,0.42534885,-0.24064909,-0.23808761,0.39481744,0.34570482,0.7270667,0.9765855,-0.11725843,-0.726876,-0.20208363
0.025577594,0.21200697,0.2989043,-0.1407809,-0.19561243,0.2686633,0.13812278,0.3740223,0.5578009,-0.3501984,-0.8040379,-0.2759397
-0.2234656,-0.039815117,0.19353387,0.12553427,-0.30887958,0.061410002,0.011267104,0.042160597,0.14304312,-0.5688036,-0.8871352,-0.47065115
-0.33415148,-0.18274117,0.09870044,0.25869185,-0.30887958,-0.073755175,-0.0002652323,-0.20497046,-0.13480434,-0.7372371,-0.99100685,-0.63850594
-0.463285,-0.3120552,0.04601522,0.4084941,-0.37967154,-0.19089834,-0.0002652323,-0.33206645,-0.3361431,-0.89133584,-1.0652009,-0.7727897
-0.5555232,-0.40053323,0.014404091,0.50003994,-0.43630514,-0.25397542,-0.0002652323,-0.423858,-0.46902668,-0.99526286,-1.1304916,-0.86007416
-0.5462994,-0.42095125,-0.027744086,0.50836235,-0.40798834,-0.28100845,-0.0002652323,-0.5085886,-0.56566924,-1.0526019,-1.1720403,-0.9272161
-0.56474704,-0.4549813,-0.059355225,0.53332937,-0.37967154,-0.3260635,0.011267104,-0.52271044,-0.6300977,-1.0884389,-1.2106212,-0.9809296
-0.5462994,-0.46859327,-0.10150341,0.5416517,-0.35135475,-0.35309657,0.05739644,-0.52271044,-0.6220441,-1.0884389,-1.2462344,-0.960787
-0.5186279,-0.46859327,-0.13311453,0.51668465,-0.30887958,-0.3711186,0.05739644,-0.51564956,-0.60191023,-1.0669367,-1.2432666,-0.960787
-0.5094041,-0.46859327,-0.14365157,0.51668465,-0.29472116,-0.3711186,0.05739644,-0.4944668,-0.5817764,-1.0490183,-1.2165568,-0.960787
-0.5555232,-0.5026233,-0.14365157,0.5582964,-0.32303798,-0.38914058,0.05739644,-0.48740593,-0.56566924,-1.0310999,-1.1898469,-0.960787
-0.5462994,-0.4958173,-0.14365157,0.5499741,-0.32303798,-0.38914058,0.05739644,-0.48740593,-0.5455354,-1.0095977,-1.1631371,-0.960787
-0.4817326,-0.44817528,-0.14365157,0.49171764,-0.2664044,-0.35309657,0.02279943,-0.48740593,-0.52942824,-0.99167925,-1.1245561,-0.9339303
-0.463285,-0.42095125,-0.12257749,0.4667506,-0.2664044,-0.3260635,-0.011797569,-0.48740593,-0.52137476,-0.97734445,-1.0830075,-0.9070735
-0.4356135,-0.37330922,-0.08042932,0.42513883,-0.2664044,-0.28100845,-0.0002652323,-0.48740593,-0.5092944,-0.9665934,-1.0503621,-0.88693094
-0.38027057,-0.3392792,-0.09096636,0.3835271,-0.22392921,-0.26298642,-0.0002652323,-0.48740593,-0.49721405,-0.95584226,-1.0206845,-0.8667884
-0.4356135,-0.3528912,-0.04881818,0.4168165,-0.29472116,-0.25397542,0.011267104,-0.48740593,-0.48513377,-0.9450912,-0.9880391,-0.83321744
-0.463285,-0.3665032,-0.03828113,0.4334612,-0.32303798,-0.25397542,-0.023329906,-0.4591624,-0.481107,-0.9379238,-0.9761681,-0.8265032
-0.463285,-0.3665032,-0.03828113,0.4334612,-0.32303798,-0.25397542,-0.057926904,-0.45210153,-0.50124085,-0.9307564,-0.97023255,-0.8265032
-0.52785176,-0.3665032,0.03547818,0.45842823,-0.42214674,-0.22694238,-0.057926904,-0.45210153,-0.52137476,-0.912838,-0.9613293,-0.8265032
-0.6108662,-0.37330922,0.119774535,0.50003994,-0.53541386,-0.19089834,-0.04639458,-0.4167971,-0.53748184,-0.8949195,-0.95242596,-0.8265032
-0.6569852,-0.3528912,0.21460795,0.50836235,-0.64868104,-0.13683225,-0.06945925,-0.40973622,-0.5334551,-0.8770011,-0.9435227,-0.8265032
-0.6016423,-0.26441318,0.2778302,0.4334612,-0.6345226,-0.055733155,-0.04639458,-0.43091887,-0.517348,-0.8626663,-0.93758714,-0.8265032
-0.41716588,-0.046621118,0.40427476,0.21708012,-0.59204745,0.14250912,-0.15018559,-0.4944668,-0.5092944,-0.84474784,-0.91681284,-0.7862181
-0.11277975,0.18478297,0.42534885,-0.06587976,-0.37967154,0.30470732,-0.34623525,-0.48740593,-0.49721405,-0.8304131,-0.90494174,-0.69221944
0.0071299463,0.21881297,0.33051544,-0.13245855,-0.22392921,0.2776743,-0.3923646,-0.5015277,-0.48513377,-0.82682943,-0.89307076,-0.6452201
0.016353771,0.17117096,0.24621908,-0.1074915,-0.16729563,0.21459721,-0.54228497,-0.65686727,-0.481107,-0.8053273,-0.87526417,-0.6519343
0.06247288,0.15075296,0.15138568,-0.12413621,-0.054028478,0.16053115,-0.7037377,-0.72041523,-0.52137476,-0.83758044,-0.8782319,-0.6720769
0.025577594,0.08949893,0.10923749,-0.06587976,-0.054028478,0.106465064,-0.6691407,-0.75571966,-0.553589,-0.8877522,-0.91681284,-0.63850594
-0.18657032,-0.12148713,0.024941133,0.15882367,-0.15313724,-0.06474417,-0.56534964,-0.70629346,-0.5415086,-0.9164217,-0.98507136,-0.6855053
-0.36182296,-0.21677117,0.07762636,0.3003036,-0.32303798,-0.10979923,-0.5884143,-0.76278055,-0.62607086,-0.959426,-0.99100685,-0.7257904
-0.40794206,-0.3528912,-0.08042932,0.4001718,-0.252246,-0.26298642,-0.43849394,-0.70629346,-0.6139906,-0.97734445,-1.0177168,-0.7996465
-0.50018024,-0.34608522,0.03547818,0.4334612,-0.39382994,-0.20892036,-0.48462328,-0.74159795,-0.65023154,-1.006014,-1.0473943,-0.8802168
-0.5831947,-0.55707127,-0.18579978,0.60823053,-0.32303798,-0.44320667,-0.33470294,-0.67098904,-0.60191023,-1.0167651,-1.1186206,-1.0212147
-0.57397085,-0.5026233,-0.12257749,0.56661874,-0.36551315,-0.38012958,-0.26550892,-0.6286237,-0.5938567,-1.0561857,-1.1097174,-1.027929
-0.5094041,-0.5706833,-0.30170727,0.5832635,-0.18145403,-0.50628376,-0.17325026,-0.6992326,-0.605937,-1.0633531,-1.0919108,-1.0145005
-0.8322379,-0.7544454,-0.22794797,0.84125626,-0.4787803,-0.5963939,0.93385386,0.3245961,-0.2556076,-1.0776879,-1.2670087,-1.3569242
-0.8414617,0.46382904,1.6792572,0.09224487,-1.7671943,1.0255883,1.0607096,0.8117974,-0.058295622,-0.6906491,-0.9939746,-0.9406445
0.9848551,1.5732075,1.2999235,-1.4057779,-0.124820456,1.593282,-0.2885736,1.0095022,1.1376566,0.68190485,-0.05616196,0.75804555
4.1762977,3.301932,0.34105247,-3.9024827,2.975868,2.332185,-3.9443235,-0.5509539,2.0114665,3.122399,1.6532687,3.893572
3.9180307,1.8182236,-1.6609861,-2.8705115,4.122698,0.4849276,-4.578602,-3.3964918,0.31216764,3.2764976,1.5909456,3.9607139
-0.85990936,-2.2517657,-2.5039496,1.7650371,1.0220095,-2.5607944,-0.56534964,-3.4953442,-2.7803953,-1.1421943,-1.2343633,-0.6855053
-3.1750884,-2.830276,-0.7548002,3.1631916,-1.9229364,-2.191343,0.96845084,-1.9631314,-3.7589016,-3.539684,-2.495662,-3.0019007
-2.3449447,-2.660126,-1.4397081,2.6888177,-0.8327401,-2.3715632,1.9141023,-0.48740593,-2.2931554,-2.529083,-2.0831432,-2.659477
-2.1051254,-2.4491398,-1.3870229,2.4474695,-0.6769978,-2.2093651,3.0212066,0.09864769,-1.5482023,-2.1169584,-1.8724321,-2.3640528
-1.404115,-1.4418516,-0.6283557,1.5153667,-0.64868104,-1.2271647,2.0178933,0.331657,-0.8072758,-1.4969798,-1.4510099,-1.665777
-0.69388056,-0.5094293,-0.006670003,0.6248752,-0.52125543,-0.34408554,0.8646598,0.14101303,-0.22742015,-1.0095977,-1.1661048,-1.2629255
-0.6846567,-0.16232315,0.5307193,0.4084941,-0.8752154,0.11547607,0.43796352,-0.1908487,-0.20728628,-0.8985032,-1.0830075,-1.1152134
-0.5831947,-0.114681125,0.47803408,0.32527065,-0.7619482,0.12448709,0.18425213,-0.14848337,-0.07440272,-0.78740877,-1.0325556,-0.9809296
-0.5555232,-0.026203109,0.59394157,0.25869185,-0.8185818,0.23261924,0.16118744,-0.1908487,-0.08245627,-0.77307403,-0.99100685,-0.9272161
-0.5462994,-0.039815117,0.5623304,0.2670142,-0.79026496,0.2055862,0.13812278,-0.11317893,0.006132773,-0.6942328,-0.94945824,-0.9003594
-0.4817326,0.041856915,0.6150156,0.19211306,-0.79026496,0.28668532,0.091993436,-0.10611804,0.058480844,-0.6655633,-0.9286839,-0.88693094
-0.4817326,0.048662916,0.62555265,0.18379071,-0.79026496,0.29569632,0.06892877,-0.0708136,0.12693602,-0.6046405,-0.89900625,-0.84664583
-0.4356135,0.10311094,0.6677009,0.13385662,-0.77610654,0.34976238,0.05739644,0.020977937,0.21552508,-0.5544688,-0.8782319,-0.83993167
-0.3433753,0.20520097,0.699312,0.03398843,-0.7477898,0.4308615,0.1496551,0.14807391,0.3363283,-0.4720439,-0.8366832,-0.7996465
-0.25113708,0.286873,0.7309232,-0.06587976,-0.6911562,0.49393857,0.19578446,0.29635254,0.50947964,-0.3609495,-0.77436024,-0.6855053
-0.14045121,0.39576903,0.77307135,-0.18239266,-0.6345226,0.5930597,0.26497847,0.50111836,0.7027648,-0.26777348,-0.73577935,-0.604935
-0.038989164,0.49105307,0.8046825,-0.28226084,-0.5637307,0.66514784,0.33417246,0.74118847,0.93631774,-0.14951165,-0.70313394,-0.54450727
0.03480141,0.5455011,0.8046825,-0.34883964,-0.52125543,0.7011919,0.39183417,1.0095022,1.1738975,0.0045870915,-0.64081097,-0.4505086
0.1547111,0.6407851,0.8152196,-0.45703018,-0.42214674,0.77327996,0.44949582,1.2919377,1.4597985,0.14793476,-0.5992623,-0.30279645
0.38530666,0.79051715,0.7941454,-0.65676653,-0.23808761,0.8633901,0.41489884,1.524947,1.7054318,0.2590292,-0.6051978,-0.24908295
0.39453048,0.8653832,0.88897884,-0.7067006,-0.30887958,0.9535002,0.3111078,1.5673124,1.7980477,0.26978028,-0.6051978,-0.25579712
0.3207399,0.8585772,0.96273816,-0.6734112,-0.40798834,0.9805332,0.24191381,1.4543381,1.826235,0.23035966,-0.6022301,-0.24908295
0.30229226,0.8653832,0.9943493,-0.6650889,-0.43630514,0.9985553,0.1496551,1.3978511,1.7416726,0.2088575,-0.60816556,-0.25579712
0.14548728,0.8517712,1.162942,-0.5901877,-0.6769978,1.0616324,0.06892877,1.2001462,1.5000663,0.14076738,-0.5962945,-0.24908295
0.18238257,0.8653832,1.131331,-0.6151548,-0.6203642,1.0526214,-0.011797569,0.8188582,1.1296029,-0.0061639836,-0.6556498,-0.2759397
0.21005404,0.81774116,1.0259604,-0.5901877,-0.53541386,0.9805332,-0.06945925,0.41638765,0.69068444,-0.19968335,-0.73874706,-0.38336673
0.0071299463,0.6203671,0.96273816,-0.39045137,-0.64868104,0.818335,-0.10405624,0.049221486,0.28398022,-0.4039538,-0.81887674,-0.54450727
-0.28803235,0.34812704,0.8679047,-0.08252446,-0.8044234,0.60207075,-0.13865325,-0.21909225,-0.06634917,-0.6010568,-0.9227484,-0.71236205
-0.5555232,0.10311094,0.7941454,0.18379071,-0.97432417,0.40382847,-0.19631495,-0.39561445,-0.34822342,-0.75873923,-0.9880391,-0.8667884
-0.6016423,0.035050914,0.74146026,0.25036952,-0.96016574,0.3407514,-0.23091193,-0.52271044,-0.5133212,-0.8626663,-1.0592654,-0.9406445
-0.6108662,-0.0057851025,0.688775,0.27533653,-0.9176906,0.28668532,-0.2770413,-0.59331924,-0.60191023,-0.912838,-1.0830075,-0.98764384
-0.6477614,-0.06023312,0.6466268,0.32527065,-0.9176906,0.23261924,-0.2885736,-0.59331924,-0.6139906,-0.9307564,-1.1008141,-1.0547856
-0.6754329,-0.10787514,0.59394157,0.36688238,-0.9176906,0.17855316,-0.2885736,-0.59331924,-0.60191023,-0.9343402,-1.1215883,-1.0614998
-0.6846567,-0.15551715,0.54125637,0.4001718,-0.8893737,0.12448709,-0.2885736,-0.59331924,-0.60191023,-0.9164217,-1.1126851,-1.0547856
-0.6754329,-0.12148713,0.5834045,0.37520474,-0.90353215,0.16053115,-0.2885736,-0.59331924,-0.60191023,-0.8985032,-1.1067495,-1.027929
-0.63853765,-0.087457135,0.59394157,0.34191534,-0.8893737,0.19657518,-0.2885736,-0.5791975,-0.60191023,-0.8805848,-1.0978463,-1.027929
-0.6108662,-0.053427115,0.6150156,0.30862594,-0.8752154,0.23261924,-0.2885736,-0.5580148,-0.60191023,-0.86625,-1.088943,-1.0077863
-0.5831947,-0.012591104,0.6466268,0.2670142,-0.8752154,0.2686633,-0.2885736,-0.5580148,-0.58982986,-0.8483316,-1.0800397,-0.98764384
-0.5370756,0.028244909,0.65716386,0.22540246,-0.861057,0.29569632,-0.2885736,-0.5580148,-0.5777496,-0.83758044,-1.0741042,-0.994358
-0.5555232,0.06227492,0.7309232,0.21708012,-0.9176906,0.34976238,-0.2885736,-0.5580148,-0.56566924,-0.82682943,-1.0592654,-0.9675012
-0.57397085,0.08269293,0.7941454,0.20875776,-0.97432417,0.39481744,-0.2885736,-0.56507576,-0.5576157,-0.8160783,-1.0414588,-0.9473587
-0.5831947,0.10991693,0.84683067,0.19211306,-1.0309577,0.4308615,-0.2885736,-0.59331924,-0.5415086,-0.8053273,-1.02662,-0.9205019
-0.5831947,0.13033494,0.85736775,0.17546836,-1.0167993,0.44888353,-0.2885736,-0.59331924,-0.54956216,-0.79457617,-1.0088134,-0.9003594
-0.52785176,0.16436496,0.85736775,0.13385662,-0.9884826,0.47591656,-0.2770413,-0.61450195,-0.56164247,-0.7909925,-0.9939746,-0.86007416
-0.56474704,0.17117096,0.9100529,0.14217897,-1.0451162,0.5029496,-0.3001059,-0.63568467,-0.56566924,-0.76949036,-0.9999101,-0.88693094
-0.50018024,0.21200697,0.9100529,0.09224487,-0.9884826,0.5299826,-0.2770413,-0.62156284,-0.5777496,-0.7444045,-1.02662,-0.9205019
-0.50018024,0.23242499,0.9311271,0.08392253,-1.0167993,0.5480047,-0.32317057,-0.63568467,-0.5858031,-0.7193186,-1.0295877,-0.85335994
-0.52785176,0.286873,1.0470345,0.058955476,-1.115908,0.6381148,-0.3923646,-0.62156284,-0.56164247,-0.6942328,-1.0177168,-0.80636066
-0.16812268,0.57272506,1.0786457,-0.27393848,-0.861057,0.83635706,-0.4269616,-0.63568467,-0.56164247,-0.6727307,-0.9999101,-0.74593294
-0.075884454,0.6203671,1.0470345,-0.34883964,-0.7619482,0.85437906,-0.3923646,-0.62156284,-0.5576157,-0.679898,-0.9880391,-0.7392188
-0.11277975,0.6612031,1.152405,-0.34883964,-0.8752154,0.9264672,-0.4269616,-0.6286237,-0.56164247,-0.6906491,-0.9761681,-0.7660755
-0.15889885,0.6748151,1.2261643,-0.34051728,-0.9460073,0.9715223,-0.7959964,-0.70629346,-0.56164247,-0.6834817,-0.9583615,-0.7862181
-0.2234656,0.55230707,1.1102568,-0.24064909,-0.9176906,0.83635706,-0.93438435,-0.73453707,-0.5576157,-0.6942328,-0.98210365,-0.8130749
-0.08510828,0.45702302,0.8046825,-0.24064909,-0.6203642,0.64712584,-0.8305934,-0.7486588,-0.60996383,-0.73365337,-1.0295877,-0.81978905
-0.27880853,0.259649,0.72038615,-0.032590367,-0.70531464,0.47591656,-0.7613993,-0.70629346,-0.6462047,-0.77307403,-1.0562975,-0.8667884
-0.463285,0.17117096,0.7941454,0.10056722,-0.8893737,0.44888353,-0.7383347,-0.7769024,-0.6945261,-0.7838251,-1.0652009,-0.8667884
-0.5555232,0.041856915,0.699312,0.21708012,-0.90353215,0.33174038,-0.5999466,-0.68511087,-0.6542583,-0.80891097,-1.1008141,-0.9272161
-0.62931377,0.10991693,0.8995159,0.21708012,-1.0875913,0.45789453,-0.64607596,-0.79102415,-0.73882055,-0.83758044,-1.1097174,-0.9742154
-0.721552,-0.087457135,0.688775,0.37520474,-1.0026408,0.23261924,-0.38083228,-0.67805,-0.6542583,-0.85908264,-1.1690726,-1.1286418
-0.7584473,0.041856915,0.92059,0.3169483,-1.2008585,0.4218505,-0.47309095,-0.7769024,-0.6945261,-0.84474784,-1.151266,-1.0883566
-0.6846567,-0.22357719,0.42534885,0.44178352,-0.8044234,0.034376964,-0.13865325,-0.65686727,-0.5938567,-0.85549897,-1.1957824,-1.1756411
-1.0259382,-0.23718916,0.8046825,0.5999082,-1.328284,0.18756418,0.9569185,0.51524,-0.25963438,-0.8770011,-1.2610731,-1.3972093
-0.6477614,0.9946972,2.2798686,-0.3238726,-2.0362036,1.6383371,0.81853056,0.7976756,0.006132773,-0.31436148,-0.8515221,-0.7056478
1.7227608,2.1925538,1.4263681,-2.1131778,0.37072337,2.0528438,-0.99204606,1.0024413,1.4316111,1.190789,0.17532344,1.1810395
4.8588605,3.9212782,0.52018225,-4.593238,3.3864615,2.8187795,-4.993766,-1.172312,1.9752257,3.5345235,1.7690113,4.182282
3.3553774,1.5936254,-1.3659488,-2.4876833,3.4855702,0.47591656,-4.382552,-4.109641,-0.18715242,2.6601028,1.0241032,3.0542984
-1.7730678,-2.0611978,-1.1657449,2.0646417,-0.5637307,-1.8579355,-0.17325026,-3.7212923,-3.3240097,-1.9019369,-1.7299794,-1.5919209
-3.0644028,-2.2449598,0.024941133,2.7553966,-2.3618467,-1.470462,0.8992569,-2.125532,-3.734741,-3.2314866,-2.4303713,-2.9213305
-2.4740782,-2.2994077,-0.7442631,2.5223708,-1.399076,-1.8399136,2.1332166,-0.67805,-2.2085934,-2.2244692,-2.0356588,-2.5319076
-2.2434828,-1.9523016,-0.45976296,2.2061217,-1.4132344,-1.488484,2.9520125,-0.16260514,-1.5723629,-1.8589327,-1.810109,-2.196198
-1.2196385,-0.87695336,0.03547818,1.0909268,-0.96016574,-0.5603498,1.6834557,0.23280457,-0.73882055,-1.1816149,-1.4153968,-1.6187776
-0.91525227,-0.067039125,0.94166404,0.4501059,-1.328284,0.35877338,0.6340132,0.2610481,-0.30795568,-0.84474784,-1.22546,-1.2696397
-0.8414617,0.10991693,1.131331,0.30862594,-1.4132344,0.5480047,0.25344613,-0.042570055,-0.21936661,-0.6870654,-1.1304916,-1.0145005
-0.5186279,0.273261,1.0048864,0.058955476,-1.0734329,0.6110818,0.0458641,-0.021387389,-0.086483054,-0.6082242,-1.1008141,-1.0077863
-0.47250882,0.37535104,1.1207938,-0.024268012,-1.115908,0.7282249,0.0458641,-0.04963094,-0.07440272,-0.5795547,-1.088943,-0.9473587
-0.4263897,0.34812704,1.0259604,-0.024268012,-1.0167993,0.66514784,-0.0002652323,0.042160597,0.018213097,-0.50429714,-1.0681686,-0.91378766
-0.36182296,0.44341105,1.0997198,-0.115813866,-1.0167993,0.76426893,-0.034862243,0.063343264,0.054454073,-0.46129286,-1.0562975,-0.88693094
-0.3525991,0.44341105,1.0891827,-0.115813866,-1.0026408,0.7552579,-0.057926904,0.12689124,0.17123054,-0.4003701,-1.0355233,-0.8265032
-0.2972562,0.51147103,1.131331,-0.18239266,-0.9884826,0.818335,-0.034862243,0.1621957,0.27995345,-0.3466147,-1.0236523,-0.7727897
-0.26958472,0.5386951,1.1418679,-0.21568206,-0.97432417,0.8453681,0.05739644,0.23280457,0.39672992,-0.2570224,-0.98507136,-0.71236205
-0.16812268,0.6407851,1.1840161,-0.3238726,-0.9176906,0.9264672,0.11505811,0.46581382,0.5537741,-0.16026273,-0.9227484,-0.63850594
-0.011317696,0.74287516,1.162942,-0.44870785,-0.79026496,0.9805332,0.2073168,0.66351867,0.75913966,-0.049168285,-0.87526417,-0.5243647
0.13626346,0.81774116,1.1102568,-0.55689836,-0.64868104,1.0165772,0.2765108,0.9459542,0.99671936,0.05475878,-0.8515221,-0.42365184
0.21005404,0.87899524,1.1207938,-0.6317995,-0.59204745,1.0616324,0.35723713,1.2283897,1.2745668,0.19093905,-0.7891991,-0.33636743
0.2746208,0.9198312,1.1207938,-0.6817336,-0.5495723,1.0886654,0.39183417,1.5037643,1.5443608,0.33428672,-0.7506182,-0.21551201
0.45909724,1.0627573,1.1207938,-0.8565029,-0.40798834,1.1787755,0.44949582,1.7861997,1.7456995,0.42029533,-0.7565537,-0.06779982
0.47754487,1.0763693,1.1207938,-0.8731476,-0.39382994,1.1877866,0.43796352,1.8144433,1.8624759,0.43821377,-0.7506182,-0.0140863
0.41297814,1.0559512,1.162942,-0.8315359,-0.46462193,1.1877866,0.33417246,1.715591,1.8302617,0.41312793,-0.75358593,-0.020800486
0.29306844,1.0627573,1.3104607,-0.78992414,-0.6628395,1.2688856,0.26497847,1.6237994,1.7295923,0.39879316,-0.75358593,-0.020800486
0.17315875,1.0151153,1.3736829,-0.6983783,-0.79026496,1.2598747,0.18425213,1.3766683,1.504093,0.32353565,-0.75358593,-0.0140863
0.3207399,1.0423392,1.2472384,-0.78992414,-0.59204745,1.2238306,0.06892877,0.9741978,1.0973887,0.1694369,-0.7921668,-0.06779982
0.3207399,0.9606672,1.131331,-0.7316677,-0.52125543,1.1156985,-0.08099159,0.5576053,0.65847033,0.0045870915,-0.8574576,-0.20208363
0.04402523,0.68842715,1.0154234,-0.44038546,-0.64868104,0.8904231,-0.17325026,0.16925658,0.24773927,-0.16743013,-0.940555,-0.36322418
-0.20501797,0.44341105,0.92059,-0.18239266,-0.77610654,0.68316984,-0.17325026,-0.10611804,-0.11467048,-0.3537821,-1.0295877,-0.5377931
-0.37104675,0.266455,0.83629364,0.009021382,-0.861057,0.5299826,-0.17325026,-0.26145756,-0.31600922,-0.49712974,-1.1037818,-0.69221944
-0.45406115,0.15075296,0.75199723,0.10888957,-0.861057,0.4218505,-0.17325026,-0.39561445,-0.45694634,-0.59030575,-1.1631371,-0.80636066
-0.50018024,0.06227492,0.6677009,0.18379071,-0.8327401,0.33174038,-0.17325026,-0.4591624,-0.569696,-0.63331,-1.1898469,-0.86007416
-0.5370756,-0.0057851025,0.6044786,0.24204716,-0.8185818,0.2596523,-0.16171792,-0.4450406,-0.56164247,-0.63331,-1.1987501,-0.86007416
-0.52785176,-0.033009112,0.5517934,0.25869185,-0.77610654,0.21459721,-0.115588576,-0.46622333,-0.5455354,-0.63331,-1.1957824,-0.86007416
-0.5370756,-0.067039125,0.49910817,0.28365892,-0.7477898,0.16954213,-0.115588576,-0.48740593,-0.53748184,-0.63331,-1.2224923,-0.86007416
-0.5555232,-0.10787514,0.467497,0.3169483,-0.7336314,0.12448709,-0.115588576,-0.4944668,-0.52137476,-0.63331,-1.2373312,-0.86007416
-0.5555232,-0.14871114,0.40427476,0.34191534,-0.6911562,0.07042102,-0.115588576,-0.46622333,-0.52137476,-0.622559,-1.22546,-0.84664583
-0.5462994,-0.14871114,0.3937377,0.34191534,-0.6769978,0.07042102,-0.115588576,-0.45210153,-0.50124085,-0.57597095,-1.2284278,-0.8130749
-0.5370756,-0.114681125,0.43588588,0.30862594,-0.70531464,0.106465064,-0.13865325,-0.45210153,-0.50124085,-0.5329667,-1.2284278,-0.7929323
-0.52785176,-0.09426313,0.45695996,0.29198125,-0.70531464,0.1334981,-0.18478258,-0.43091887,-0.50124085,-0.50788087,-1.2284278,-0.7660755
-0.52785176,-0.073845126,0.4885711,0.28365892,-0.7336314,0.16053115,-0.20784725,-0.40973622,-0.50124085,-0.4899624,-1.2284278,-0.7392188
-0.52785176,-0.039815117,0.54125637,0.25869185,-0.7619482,0.2055862,-0.24244425,-0.423858,-0.50124085,-0.4720439,-1.2284278,-0.71907616
-0.5094041,-0.026203109,0.54125637,0.24204716,-0.7477898,0.21459721,-0.2770413,-0.45210153,-0.50124085,-0.45770916,-1.2284278,-0.6989336
-0.463285,-0.026203109,0.4885711,0.22540246,-0.6769978,0.18756418,-0.2885736,-0.45210153,-0.50124085,-0.4397907,-1.2284278,-0.67879105
-0.44483736,-0.026203109,0.467497,0.21708012,-0.64868104,0.17855316,-0.2885736,-0.4591624,-0.50124085,-0.42545593,-1.22546,-0.6586485
-0.40794206,-0.026203109,0.4148118,0.20043541,-0.59204745,0.16053115,-0.2885736,-0.48740593,-0.50124085,-0.41828856,-1.2284278,-0.63850594
-0.36182296,-0.026203109,0.38320068,0.18379071,-0.52125543,0.14250912,-0.2885736,-0.48740593,-0.5052676,-0.4075375,-1.22546,-0.62507755
-0.41716588,-0.033009112,0.42534885,0.20875776,-0.59204745,0.16053115,-0.2770413,-0.46622333,-0.50124085,-0.3967864,-1.2343633,-0.61164916
-0.3987182,0.007826903,0.467497,0.17546836,-0.6203642,0.2055862,-0.3001059,-0.43797973,-0.4770802,-0.38603532,-1.2551376,-0.5646499
-0.27880853,0.11672295,0.49910817,0.058955476,-0.5495723,0.28668532,-0.2539766,-0.4167971,-0.45291957,-0.37886795,-1.2402989,-0.51765054
-0.15889885,0.307291,0.65716386,-0.12413621,-0.5637307,0.4849276,-0.21937957,-0.38855353,-0.42875892,-0.3573658,-1.2195245,-0.47736537
-0.075884454,0.44341105,0.77307135,-0.24064909,-0.59204745,0.62009275,-0.20784725,-0.36737087,-0.42875892,-0.31794515,-1.1987501,-0.42365184
-0.048212986,0.47063506,0.78360844,-0.26561615,-0.577889,0.64712584,-0.13865325,-0.33206645,-0.44083926,-0.28569195,-1.1898469,-0.39679512
-0.038989164,0.48424706,0.78360844,-0.28226084,-0.5495723,0.6561368,-0.5538173,-0.4450406,-0.4609731,-0.2606061,-1.1957824,-0.4102235
0.03480141,0.44341105,0.6466268,-0.2905832,-0.42214674,0.5660267,-0.91131973,-0.5015277,-0.4609731,-0.28927565,-1.201718,-0.4505086
0.26539698,0.39576903,0.2989043,-0.36548433,0.0026050985,0.38580644,-0.8305934,-0.54389304,-0.49318734,-0.29285932,-1.1987501,-0.4505086
0.22850168,0.17117096,0.0038670439,-0.2073597,0.17250583,0.106465064,-0.6345436,-0.5015277,-0.48916057,-0.31436148,-1.2224923,-0.49750793
-0.011317696,0.09630493,0.15138568,-0.057557408,-0.124820456,0.12448709,-0.5884143,-0.53683215,-0.53748184,-0.3609495,-1.2046857,-0.47736537
-0.18657032,-0.06023312,0.119774535,0.11721192,-0.22392921,0.007343928,-0.47309095,-0.5297713,-0.569696,-0.38961902,-1.2343633,-0.49750793
-0.38027057,-0.13509914,0.22514498,0.25036952,-0.43630514,0.007343928,-0.41542926,-0.4944668,-0.5777496,-0.4469581,-1.2848153,-0.5915066
-0.57397085,-0.2576072,0.2567561,0.4168165,-0.6062059,-0.055733155,-0.3577676,-0.5015277,-0.60191023,-0.45054176,-1.2788798,-0.6720769
-0.6662091,-0.3392792,0.22514498,0.50836235,-0.64868104,-0.12782124,-0.18478258,-0.296762,-0.5133212,-0.4720439,-1.3026218,-0.75264716
-0.5186279,-0.20315915,0.2778302,0.35856006,-0.577889,-0.010678095,-0.32317057,-0.51564956,-0.5938567,-0.46129286,-1.2551376,-0.69221944
-0.7584473,-0.66596735,-0.16472568,0.74971044,-0.46462193,-0.50628376,0.73780423,0.268109,-0.2878218,-0.49712974,-1.3946224,-0.9473587
-0.96137136,0.11672295,1.2788495,0.36688238,-1.5972935,0.62009275,1.3144209,0.66351867,-0.11467048,-0.2606061,-1.2373312,-0.71236205
0.25617313,1.1716533,1.5212015,-0.83985823,-0.8185818,1.4220729,0.5186898,1.030685,0.77121997,0.70699066,-0.57255244,0.42905024
3.798121,2.94802,0.22514498,-3.5113323,2.763492,2.0438328,-2.8372197,0.79061466,2.2812607,2.8249526,0.86977965,3.1952965
5.2554846,3.0773342,-1.2395042,-4.243699,4.8589344,1.5031719,-5.3743334,-2.7892554,1.540334,3.9358974,1.561268,4.645561
0.7911548,-0.9654315,-2.388042,0.24204716,2.2113147,-1.6596932,-1.7993094,-4.4485636,-1.7696749,0.5242224,-0.69719845,0.79833066
-2.8430312,-2.68735,-0.91285586,2.9301658,-1.5689766,-2.16431,0.91078913,-3.0505083,-3.9803743,-2.679598,-2.4986298,-2.3170533
-2.6677785,-2.4967818,-0.80748534,2.7304294,-1.4981848,-2.0021117,1.5796646,-1.3911996,-2.8488505,-2.16713,-2.3027575,-2.2633398
-2.6032119,-2.5784538,-1.0076892,2.7553966,-1.3141255,-2.137277,3.113465,-0.38855353,-1.7898088,-1.5650699,-2.0683043,-2.061914
-1.9667681,-1.7617335,-0.49137408,1.9730958,-1.1725416,-1.371341,2.732898,0.119830355,-1.1173373,-1.0741042,-1.7359151,-1.4844939
-0.73077583,-0.68638533,-0.22794797,0.7580328,-0.40798834,-0.5513388,1.3720825,0.40932673,-0.31198242,-0.45770916,-1.4064934,-0.9003594
-0.62008995,-0.20996517,0.38320068,0.4084941,-0.7336314,0.02536595,0.85312754,0.28929168,-0.15896499,-0.30719408,-1.2848153,-0.6317918
-0.6108662,-0.16912916,0.43588588,0.37520474,-0.7619482,0.07042102,0.4725605,0.28929168,0.0021059995,-0.20685074,-1.2432666,-0.5310789
-0.45406115,-0.039815117,0.45695996,0.22540246,-0.64868104,0.16954213,0.3803018,0.22574367,-0.009974327,-0.18176489,-1.2195245,-0.50422215
-0.40794206,-0.026203109,0.43588588,0.19211306,-0.6062059,0.16954213,0.42643115,0.1621957,0.04640052,-0.12442582,-1.1987501,-0.44379446
-0.30648002,0.05546892,0.42534885,0.10056722,-0.52125543,0.22360823,0.34570482,0.17631745,0.09069505,-0.0850052,-1.1809436,-0.4102235
-0.25113708,0.10991693,0.4464229,0.04231078,-0.49293873,0.2596523,0.35723713,0.2610481,0.18331087,-0.034833517,-1.1453304,-0.36322418
-0.12200357,0.17797697,0.4148118,-0.057557408,-0.37967154,0.29569632,0.34570482,0.331657,0.31216764,0.01892186,-1.1126851,-0.32293904
-0.103555925,0.266455,0.52018225,-0.115813866,-0.43630514,0.39481744,0.40336648,0.39520496,0.41686377,0.0905957,-1.0622331,-0.25579712
-0.057436813,0.36854503,0.63608974,-0.19903736,-0.4787803,0.5119606,0.40336648,0.59997076,0.5779348,0.18018799,-0.9939746,-0.18865523
0.025577594,0.450217,0.6677009,-0.2905832,-0.42214674,0.5840487,0.40336648,0.8117974,0.7430326,0.24827813,-0.940555,-0.12151334
0.04402523,0.48424706,0.699312,-0.31555024,-0.43630514,0.62009275,0.43796352,1.0377457,0.96853197,0.34145412,-0.890103,-0.0140863
0.1916064,0.5931431,0.699312,-0.44870785,-0.32303798,0.68316984,0.5071575,1.3272421,1.2061117,0.46329963,-0.84261876,0.059769794
0.36685902,0.73606914,0.72038615,-0.6151548,-0.20977081,0.800313,0.64554554,1.6096776,1.4879858,0.6066473,-0.7981024,0.17391102
0.45909724,0.8313532,0.75199723,-0.715023,-0.15313724,0.8724011,0.76086885,1.9132957,1.7497262,0.7249091,-0.7565537,0.26119548
0.47754487,0.8381592,0.75199723,-0.7316677,-0.13897885,0.8724011,0.71473956,2.1251223,1.8665028,0.75357866,-0.7476504,0.2477671
0.42220193,0.81774116,0.78360844,-0.69005597,-0.19561243,0.8724011,0.62248087,2.1251223,1.9027437,0.7213254,-0.75358593,0.2477671
0.43142578,0.8041291,0.75199723,-0.69005597,-0.18145403,0.85437906,0.5302222,2.0686352,1.8946902,0.6854885,-0.7595214,0.2477671
0.39453048,0.7769051,0.75199723,-0.65676653,-0.20977081,0.83635706,0.43796352,1.8568085,1.7336192,0.6496516,-0.7684247,0.2477671
0.39453048,0.76329315,0.7309232,-0.6484442,-0.18145403,0.818335,0.35723713,1.4472773,1.3913434,0.5385571,-0.7713925,0.2544813
0.39453048,0.73606914,0.688775,-0.6317995,-0.16729563,0.78229094,0.24191381,0.9883195,0.9403445,0.37370732,-0.80700564,0.20076777
0.1916064,0.5931431,0.70984906,-0.44870785,-0.33719635,0.6921809,0.11505811,0.52230096,0.47323865,0.18735537,-0.890103,0.053055603
-0.048212986,0.38215703,0.6466268,-0.21568206,-0.4787803,0.5299826,-0.034862243,0.1551348,0.09069505,0.0045870915,-0.9672647,-0.12151334
-0.26958472,0.17117096,0.5623304,0.017343732,-0.59204745,0.34976238,-0.0925239,-0.12730071,-0.18312563,-0.14592797,-1.0295877,-0.2759397
-0.3987182,0.028244909,0.49910817,0.15882367,-0.6345226,0.23261924,-0.04639458,-0.37443176,-0.3844644,-0.24985504,-1.0770719,-0.38336673
-0.463285,-0.073845126,0.4148118,0.25036952,-0.6345226,0.12448709,-0.057926904,-0.46622333,-0.49721405,-0.32869625,-1.0948786,-0.38336673
-0.5094041,-0.16232315,0.33051544,0.32527065,-0.6203642,0.034376964,-0.057926904,-0.51564956,-0.53748184,-0.38961902,-1.1186206,-0.4169377
-0.463285,-0.16232315,0.2778302,0.30862594,-0.53541386,0.016354939,-0.057926904,-0.5580148,-0.5858031,-0.38603532,-1.1245561,-0.463937
-0.463285,-0.16232315,0.2778302,0.30862594,-0.53541386,0.016354939,-0.057926904,-0.52271044,-0.5858031,-0.36453316,-1.1245561,-0.4572228
-0.463285,-0.16232315,0.2778302,0.30862594,-0.53541386,0.016354939,-0.057926904,-0.48740593,-0.5576157,-0.3466147,-1.1245561,-0.4572228
-0.463285,-0.16232315,0.2778302,0.30862594,-0.53541386,0.016354939,-0.057926904,-0.45210153,-0.5334551,-0.32511255,-1.1245561,-0.4572228
-0.47250882,-0.16232315,0.2778302,0.30862594,-0.53541386,0.016354939,-0.057926904,-0.4026753,-0.5052676,-0.30719408,-1.1245561,-0.4572228
-0.4263897,-0.14190514,0.26729318,0.27533653,-0.50709707,0.02536595,-0.057926904,-0.38855353,-0.4770802,-0.28569195,-1.1067495,-0.44379446
-0.4356135,-0.10787514,0.33051544,0.2670142,-0.5495723,0.061410002,-0.04639458,-0.4167971,-0.45291957,-0.27494088,-1.0859753,-0.42365184
-0.49095646,-0.087457135,0.42534885,0.27533653,-0.6628395,0.12448709,-0.0925239,-0.4167971,-0.44083926,-0.26418978,-1.0681686,-0.4035093
-0.47250882,-0.067039125,0.43588588,0.25036952,-0.6628395,0.14250912,-0.115588576,-0.43797973,-0.44083926,-0.2570224,-1.0473943,-0.38336673
-0.4263897,-0.033009112,0.43588588,0.20875776,-0.6062059,0.16053115,-0.115588576,-0.4591624,-0.44083926,-0.24627134,-1.0355233,-0.36322418
-0.4263897,-0.033009112,0.43588588,0.20875776,-0.6203642,0.16053115,-0.16171792,-0.45210153,-0.44083926,-0.23552027,-1.0355233,-0.35650998
-0.463285,-0.06023312,0.43588588,0.24204716,-0.64868104,0.14250912,-0.17325026,-0.48034513,-0.44083926,-0.2534387,-1.0355233,-0.39008093
-0.463285,-0.06023312,0.43588588,0.24204716,-0.64868104,0.14250912,-0.18478258,-0.4944668,-0.4609731,-0.2570224,-1.0355233,-0.39008093
-0.4263897,-0.06023312,0.3937377,0.22540246,-0.59204745,0.1334981,-0.21937957,-0.52271044,-0.49318734,-0.2570224,-1.0355233,-0.39008093
-0.41716588,-0.06023312,0.3726636,0.22540246,-0.577889,0.12448709,-0.2539766,-0.51564956,-0.517348,-0.2570224,-1.0325556,-0.39008093
-0.41716588,-0.06023312,0.38320068,0.22540246,-0.577889,0.12448709,-0.2770413,-0.48740593,-0.52540153,-0.2570224,-1.0236523,-0.39008093
-0.38949442,-0.039815117,0.38320068,0.20043541,-0.5495723,0.1334981,-0.32317057,-0.48740593,-0.517348,-0.2570224,-1.0088134,-0.37665254
-0.36182296,-0.019397108,0.38320068,0.17546836,-0.52125543,0.14250912,-0.34623525,-0.48034513,-0.49318734,-0.23193657,-1.002878,-0.3296532
-0.38949442,-0.026203109,0.40427476,0.19211306,-0.5637307,0.15152013,-0.33470294,-0.48740593,-0.4609731,-0.20685074,-0.9880391,-0.29608226
-0.4263897,-0.012591104,0.467497,0.19211306,-0.6345226,0.18756418,-0.23091193,-0.48034513,-0.43681246,-0.18176489,-0.9791358,-0.26251134
-0.21424177,0.280067,0.688775,-0.07420211,-0.6345226,0.47591656,-0.17325026,-0.51564956,-0.40862504,-0.15667903,-0.964297,-0.21551201
0.090144336,0.52508307,0.70984906,-0.357162,-0.42214674,0.64712584,-0.08099159,-0.5297713,-0.3844644,-0.13517688,-0.9286839,-0.19536942
0.16393493,0.51147103,0.6044786,-0.39045137,-0.2805628,0.5930597,-0.0002652323,-0.5085886,-0.39251795,-0.11725843,-0.9138451,-0.2087978
0.2838446,0.5386951,0.50964516,-0.45703018,-0.13897885,0.57503766,-0.53075266,-0.5580148,-0.41667858,-0.11367473,-0.91681284,-0.23565456
0.31151608,0.49105307,0.4148118,-0.44038546,-0.039870083,0.5029496,-0.8651904,-0.6498064,-0.4609731,-0.11725843,-0.91681284,-0.25579712
0.071696706,0.273261,0.34105247,-0.19903736,-0.18145403,0.32272938,-0.7498671,-0.6992326,-0.5052676,-0.18534859,-0.9138451,-0.26251134
-0.048212986,0.16436496,0.30944136,-0.08252446,-0.252246,0.24163024,-0.72680235,-0.66392815,-0.5415086,-0.26418978,-0.9227484,-0.30951065
-0.048212986,0.17117096,0.30944136,-0.08252446,-0.252246,0.24163024,-0.7152699,-0.76278055,-0.60996383,-0.28569195,-0.9138451,-0.25579712
-0.12200357,0.048662916,0.21460795,0.02566608,-0.23808761,0.12448709,-0.5884143,-0.68511087,-0.5858031,-0.32869625,-0.9464904,-0.2759397
-0.11277975,0.10311094,0.28836727,-0.015945667,-0.2805628,0.18756418,-0.68067294,-0.7769024,-0.6542583,-0.33227992,-0.9227484,-0.32293904
-0.26958472,-0.10106914,0.15138568,0.18379071,-0.30887958,-0.0016670856,-0.47309095,-0.5862585,-0.605937,-0.3573658,-0.9672647,-0.49750793
-0.49095646,-0.0057851025,0.54125637,0.22540246,-0.7336314,0.22360823,-0.5999466,-0.6286237,-0.6945261,-0.33586362,-0.9435227,-0.44379446
-0.62008995,-0.2712192,0.28836727,0.44178352,-0.6628395,-0.055733155,-0.19631495,-0.4732842,-0.59788346,-0.3609495,-0.97023255,-0.5377931
-0.96137136,-0.23718916,0.7309232,0.57494116,-1.2291752,0.16053115,1.0376449,0.47287473,-0.25158083,-0.37170056,-1.0236523,-0.77950394
-0.6569852,0.87899524,2.1112761,-0.24897145,-1.9229364,1.4851499,0.96845084,0.5929099,0.042373747,0.1730206,-0.6141011,-0.08794238
2.0363708,2.0632396,0.8679047,-2.1797564,0.9653759,1.7374582,-0.87672275,1.3625466,1.5967088,1.5849952,0.32964703,1.7047464
5.6336613,3.6830683,-0.733726,-4.792974,4.8164587,2.1159208,-4.878443,-0.4450406,2.5510547,3.6026137,1.7185595,4.4105644
3.7704496,1.3077734,-2.2826717,-2.4960055,4.420024,-0.10979923,-4.301826,-4.0813975,0.33230153,2.4020767,0.82526326,3.0140133
-1.7546202,-2.2109299,-1.418634,2.1395426,-0.39382994,-2.065189,-0.13865325,-4.3497114,-3.2394476,-1.5901557,-1.6261079,-1.2964965
-3.1750884,-2.2789898,0.10923749,2.8302977,-2.517589,-1.4614509,0.7032072,-2.8245597,-3.7629282,-2.5434177,-2.0801754,-2.2566257
-2.529421,-2.2517657,-0.59674454,2.5140486,-1.5265015,-1.7498034,1.7757142,-1.3347125,-2.3012092,-1.715585,-1.7566893,-1.9410588
-2.1973636,-1.9659137,-0.53352225,2.197799,-1.328284,-1.524528,2.6637042,-0.45210153,-1.6206843,-1.321379,-1.5281718,-1.6187776
-1.1274002,-0.9245954,-0.14365157,1.0742822,-0.7619482,-0.668482,1.4643413,0.12689124,-0.6945261,-0.6583959,-1.1275239,-0.960787
-0.73077583,-0.16912916,0.57286745,0.4334612,-0.9460073,0.1334981,0.7032072,0.268109,-0.24755405,-0.32511255,-0.9108773,-0.5915066
-0.6477614,0.014632906,0.7625343,0.28365892,-1.0167993,0.33174038,0.42643115,0.23986544,-0.16299176,-0.24627134,-0.8485543,-0.4102235
-0.38027057,0.13714094,0.63608974,0.09224487,-0.71947306,0.35877338,0.19578446,0.268109,-0.02205465,-0.1745975,-0.8337155,-0.36993837
-0.3157038,0.252843,0.75199723,-0.0076233163,-0.7477898,0.4849276,0.25344613,0.20456101,-0.009974327,-0.11367473,-0.7921668,-0.2826539
-0.16812268,0.30048501,0.65716386,-0.1074915,-0.577889,0.47591656,0.2073168,0.22574367,0.08666827,-0.074254125,-0.7713925,-0.22222619
-0.103555925,0.39576903,0.7309232,-0.190715,-0.577889,0.57503766,0.17271979,0.21868278,0.13901635,-0.045584593,-0.73577935,-0.18194105
-0.15889885,0.42299306,0.84683067,-0.190715,-0.6911562,0.6381148,0.17271979,0.268109,0.23968573,-0.0025802918,-0.715005,-0.1416559
-0.15889885,0.48424706,0.9311271,-0.22400439,-0.7477898,0.71921384,0.19578446,0.36696145,0.324248,0.047591392,-0.6882952,-0.12151334
-0.029765341,0.5591131,0.8995159,-0.3238726,-0.6345226,0.7552579,0.24191381,0.5081791,0.47726542,0.15510215,-0.62597215,-0.081228204
0.03480141,0.6135611,0.9100529,-0.39045137,-0.59204745,0.79130197,0.23038144,0.69176227,0.65041673,0.21960859,-0.56958467,-0.06108563
0.14548728,0.69523317,0.9100529,-0.49031958,-0.50709707,0.85437906,0.23038144,0.9459542,0.8437019,0.30920088,-0.5042939,-0.0073721083
0.30229226,0.81093514,0.8995159,-0.6317995,-0.37967154,0.91745615,0.35723713,1.2848768,1.1134958,0.44179747,-0.42713216,0.13362586
0.4406496,0.88580114,0.85736775,-0.73999,-0.23808761,0.9535002,0.48409286,1.6237994,1.3551023,0.54214084,-0.35887367,0.21419616
0.5697831,0.9742792,0.85736775,-0.8565029,-0.13897885,1.0075663,0.55328685,1.962722,1.6208695,0.6532353,-0.30248618,0.32162318
0.680469,1.0423392,0.84683067,-0.9480487,-0.054028478,1.0526214,0.65707785,2.209853,1.826235,0.70699066,-0.27577633,0.44247866
0.8003787,1.1103992,0.8046825,-1.0395947,0.07339707,1.0796543,0.6340132,2.393436,1.9389848,0.6854885,-0.28171185,0.48947796
0.7727072,1.0899812,0.8046825,-1.0146276,0.059238672,1.0616324,0.55328685,2.4499233,1.9792525,0.6532353,-0.2698408,0.50962055
0.6343499,1.0083092,0.84683067,-0.90643704,-0.08234527,1.0255883,0.49562517,2.2592793,1.8745563,0.62098205,-0.26390526,0.4491928
0.4406496,0.9606672,0.9838122,-0.78992414,-0.32303798,1.0526214,0.41489884,1.9344784,1.6369765,0.58872885,-0.26390526,0.39547926
0.34841138,0.89260715,0.9943493,-0.7067006,-0.40798834,1.0165772,0.2073168,1.517886,1.2504063,0.48480177,-0.27577633,0.34176576
0.33918753,0.81774116,0.8784418,-0.6484442,-0.33719635,0.91745615,0.02279943,0.9953804,0.8074609,0.32353565,-0.31435722,0.26119548
0.21005404,0.6748151,0.7941454,-0.50696427,-0.37967154,0.78229094,-0.04639458,0.51524,0.38062283,0.15868583,-0.37074468,0.12691168
0.053249057,0.49105307,0.699312,-0.3238726,-0.43630514,0.62009275,-0.12712091,0.119830355,0.042373747,-0.009747676,-0.45680973,-0.047657244
-0.075884454,0.33451504,0.6044786,-0.1740703,-0.46462193,0.47591656,-0.21937957,-0.16966602,-0.18312563,-0.1315932,-0.51022947,-0.1416559
-0.21424177,0.18478297,0.5307193,-0.015945667,-0.52125543,0.34976238,-0.31163827,-0.32500556,-0.38849115,-0.22118549,-0.55177814,-0.2087978
-0.2603609,0.10991693,0.47803408,0.050633132,-0.52125543,0.2776743,-0.32317057,-0.45210153,-0.48916057,-0.28927565,-0.5933268,-0.26251134
-0.23268943,0.09630493,0.42534885,0.04231078,-0.46462193,0.25064126,-0.2885736,-0.48034513,-0.481107,-0.3000267,-0.59035903,-0.25579712
-0.20501797,0.07588692,0.36212656,0.04231078,-0.40798834,0.2055862,-0.2539766,-0.4450406,-0.481107,-0.28569195,-0.59035903,-0.25579712
-0.1773465,0.05546892,0.2989043,0.04231078,-0.33719635,0.16053115,-0.21937957,-0.4591624,-0.481107,-0.27494088,-0.59035903,-0.25579712
-0.21424177,0.035050914,0.2989043,0.06727783,-0.37967154,0.15152013,-0.17325026,-0.43091887,-0.481107,-0.26418978,-0.59035903,-0.25579712
-0.21424177,0.05546892,0.33051544,0.058955476,-0.39382994,0.17855316,-0.17325026,-0.4167971,-0.48513377,-0.24627134,-0.58739126,-0.24908295
-0.1773465,0.10311094,0.36212656,0.017343732,-0.39382994,0.22360823,-0.21937957,-0.4167971,-0.46902668,-0.23552027,-0.5666169,-0.22222619
-0.15889885,0.13714094,0.3937377,-0.0076233163,-0.39382994,0.2596523,-0.2539766,-0.39561445,-0.43681246,-0.20685074,-0.5547459,-0.2087978
-0.13122737,0.17797697,0.42534885,-0.057557408,-0.39382994,0.30470732,-0.2885736,-0.37443176,-0.41265184,-0.16026273,-0.5369393,-0.18865523
-0.103555925,0.20520097,0.43588588,-0.08252446,-0.36551315,0.32272938,-0.31163827,-0.3532491,-0.3844644,-0.12442582,-0.51913273,-0.16851267
-0.0943321,0.17797697,0.38320068,-0.06587976,-0.33719635,0.2776743,-0.3577676,-0.33912733,-0.36030373,-0.11367473,-0.5042939,-0.15508428
-0.0943321,0.17797697,0.38320068,-0.06587976,-0.33719635,0.2776743,-0.31163827,-0.31088376,-0.36030373,-0.10292366,-0.48945513,-0.12822753
-0.103555925,0.17117096,0.38320068,-0.057557408,-0.33719635,0.2686633,-0.2885736,-0.31794468,-0.36030373,-0.092172585,-0.48055184,-0.12151334
-0.14045121,0.14394695,0.38320068,-0.024268012,-0.36551315,0.2596523,-0.2885736,-0.34618822,-0.36030373,-0.08142151,-0.4686808,-0.11479914
-0.14045121,0.14394695,0.38320068,-0.024268012,-0.36551315,0.2596523,-0.2885736,-0.34618822,-0.36030373,-0.07783782,-0.4597775,-0.09465659
-0.15889885,0.12352896,0.38320068,0.0006990323,-0.37967154,0.24163024,-0.2885736,-0.34618822,-0.37238407,-0.09575628,-0.44493872,-0.081228204
-0.20501797,0.10991693,0.3937377,0.02566608,-0.43630514,0.24163024,-0.2885736,-0.34618822,-0.39654472,-0.09575628,-0.44493872,-0.11479914
-0.21424177,0.08269293,0.3726636,0.050633132,-0.42214674,0.21459721,-0.34623525,-0.37443176,-0.3804376,-0.09575628,-0.45680973,-0.16179848
-0.24191324,0.07588692,0.3937377,0.06727783,-0.45046356,0.21459721,-0.34623525,-0.38149267,-0.3804376,-0.09575628,-0.45680973,-0.15508428
-0.26958472,0.035050914,0.3726636,0.10056722,-0.46462193,0.17855316,-0.34623525,-0.37443176,-0.37641084,-0.09933997,-0.4597775,-0.15508428
-0.27880853,0.048662916,0.40427476,0.10056722,-0.49293873,0.19657518,-0.34623525,-0.33206645,-0.35627696,-0.0850052,-0.45384198,-0.15508428
-0.23268943,0.06227492,0.36212656,0.06727783,-0.42214674,0.19657518,-0.3577676,-0.3038229,-0.36030373,-0.03841721,-0.4597775,-0.15508428
-0.19579415,0.13714094,0.43588588,0.009021382,-0.45046356,0.2776743,-0.33470294,-0.26145756,-0.34419665,0.0010034001,-0.41822883,-0.1483701
-0.075884454,0.47744104,0.82575655,-0.2572938,-0.6203642,0.66514784,-0.3577676,-0.24733579,-0.29587537,0.09417939,-0.31435722,-0.08794238
0.025577594,0.62717307,0.94166404,-0.39877373,-0.6203642,0.818335,-0.33470294,-0.19790958,-0.25158083,0.12643261,-0.2935829,-0.020800486
0.090144336,0.68162113,0.9522011,-0.45703018,-0.577889,0.8633901,-0.3577676,-0.18378781,-0.2556076,0.10493046,-0.2935829,0.046341408
0.17315875,0.68842715,0.8679047,-0.50696427,-0.45046356,0.827346,-0.5999466,-0.36031,-0.26366115,0.09776308,-0.2935829,0.13362586
0.20083022,0.5863371,0.6782379,-0.44870785,-0.30887958,0.6741589,-0.7383347,-0.46622333,-0.27976826,0.07984462,-0.2935829,0.23433872
0.25617313,0.41618705,0.34105247,-0.37380666,-0.039870083,0.41283947,-0.65760833,-0.4732842,-0.29184857,0.06909354,-0.28764737,0.16048263
0.21005404,0.23242499,0.119774535,-0.23232673,0.07339707,0.19657518,-0.6345436,-0.4732842,-0.3361431,0.05475878,-0.32029274,0.06648398
0.13626346,0.18478297,0.13031158,-0.18239266,0.016763495,0.17855316,-0.6345436,-0.5015277,-0.4005715,0.044007704,-0.32029274,0.046341408
0.0071299463,0.09630493,0.14084864,-0.06587976,-0.09650367,0.12448709,-0.53075266,-0.37443176,-0.35225022,0.011754475,-0.33513156,-0.047657244
-0.1773465,0.12352896,0.3937377,0.0006990323,-0.40798834,0.25064126,-0.62301135,-0.48740593,-0.41265184,0.01892186,-0.30545393,-0.020800486
-0.2972562,-0.046621118,0.26729318,0.15882367,-0.40798834,0.07943202,-0.38083228,-0.296762,-0.34419665,-0.02408244,-0.3470026,-0.19536942
-0.38027057,0.07588692,0.54125637,0.12553427,-0.64868104,0.2776743,-0.507688,-0.4591624,-0.42070538,-0.013331368,-0.29655063,-0.101370774
-0.5094041,-0.27802518,0.15138568,0.4001718,-0.49293873,-0.118810244,-0.034862243,-0.15554425,-0.31600922,-0.074254125,-0.36480916,-0.22894037
-0.8875808,-0.039815117,0.94166404,0.42513883,-1.3141255,0.3767954,1.0722418,0.8682845,0.018213097,-0.02049875,-0.40932554,-0.47065115
-0.41716588,1.0219213,2.0691278,-0.44038546,-1.7105607,1.557238,0.9915155,1.0801111,0.4450512,0.6389006,0.038806412,0.28805226
2.5621288,2.1925538,0.45695996,-2.4960055,1.6591372,1.6473482,-1.1534988,1.6802865,2.0195203,2.1512184,1.0804907,2.2888808
5.9196,3.5945902,-1.2078931,-4.859553,5.354478,1.8546015,-4.820781,-0.5862585,2.6839383,4.0577426,2.3774025,4.8335586
3.419944,0.89941317,-2.5144868,-2.0882106,4.306757,-0.47925073,-3.448433,-3.8695712,0.27995345,2.4558322,1.1813946,2.9468715
-2.0128872,-1.9386898,-0.70211494,2.0896087,-1.0734329,-1.5785942,0.18425213,-3.7707183,-3.090457,-1.3034604,-1.0770719,-1.0816425
-2.962941,-1.8434057,0.5307193,2.4641142,-2.6308563,-0.99287844,0.9453862,-1.9348881,-3.2595816,-1.9377737,-1.3679127,-1.8202033
-2.2988257,-2.115646,-0.6494298,2.3309567,-1.328284,-1.6777153,2.110152,-0.38855353,-1.8542372,-1.2676234,-1.1542338,-1.6187776
-2.123573,-1.8978537,-0.5229852,2.1228979,-1.2716504,-1.479473,2.8482215,0.077465035,-1.3267298,-0.9200054,-0.95242596,-1.3032107
-1.0259382,-0.9586255,-0.3122443,1.0576375,-0.577889,-0.7676031,1.7295849,0.47287473,-0.45291957,-0.3000267,-0.5992623,-0.67879105
-0.3157038,-0.13509914,0.15138568,0.22540246,-0.33719635,-0.028700123,0.8069982,0.5081791,-0.038161747,0.09417939,-0.40635782,-0.31622484
-0.37104675,0.007826903,0.43588588,0.15882367,-0.577889,0.18756418,0.55328685,0.45169213,0.0826415,0.2088575,-0.329196,-0.12822753
-0.4356135,0.10311094,0.6677009,0.13385662,-0.79026496,0.34976238,0.32264015,0.47287473,0.19136442,0.23035966,-0.24313094,-0.047657244
-0.38027057,0.19158898,0.7309232,0.050633132,-0.79026496,0.43987253,0.34570482,0.39520496,0.20747152,0.30561718,-0.17487241,0.053055603
-0.24191324,0.22561899,0.63608974,-0.032590367,-0.6203642,0.4218505,0.28804314,0.40932673,0.324248,0.34145412,-0.17784019,0.086626545
-0.13122737,0.32770902,0.65716386,-0.14910325,-0.5495723,0.5029496,0.25344613,0.44463122,0.40478346,0.40596056,-0.14222705,0.1201975
-0.011317696,0.36854503,0.5834045,-0.21568206,-0.40798834,0.49393857,0.23038144,0.57172716,0.4933725,0.44538116,-0.10364615,0.15376844
0.090144336,0.450217,0.59394157,-0.31555024,-0.33719635,0.5480047,0.23038144,0.64939696,0.5900151,0.48480177,-0.029452104,0.1806252
0.14548728,0.45702302,0.5517934,-0.34883964,-0.2664044,0.53899366,0.24191381,0.7553103,0.7390058,0.57439405,0.03583865,0.20748195
0.2838446,0.5455011,0.52018225,-0.4653525,-0.13897885,0.5840487,0.21884914,0.96007603,0.92423743,0.63531685,0.059580747,0.26119548
0.34841138,0.5795311,0.49910817,-0.50696427,-0.06818687,0.5930597,0.35723713,1.2425115,1.1457101,0.7284928,0.11893597,0.35519412
0.45909724,0.6339791,0.45695996,-0.5985101,0.030921891,0.6110818,0.49562517,1.5108252,1.3551023,0.81808513,0.1782912,0.4626212
0.70814043,0.7973231,0.43588588,-0.8148912,0.2432978,0.71020293,0.5994162,1.8144433,1.6369765,0.9793513,0.22874315,0.596905
0.74503577,0.8449652,0.45695996,-0.8481806,0.2574562,0.74624693,0.6109485,2.1745486,1.9188508,1.1334499,0.2791951,0.7110462
0.70814043,0.8449652,0.49910817,-0.8315359,0.2008226,0.76426893,0.5763515,2.393436,2.1081095,1.1764543,0.29700166,0.7513313
0.66202134,0.8245472,0.52018225,-0.8065688,0.15834744,0.76426893,0.5417545,2.4922884,2.1805913,1.169287,0.29700166,0.8117591
0.6066784,0.8041291,0.5517934,-0.7649571,0.08755547,0.76426893,0.5071575,2.4711058,2.1483772,1.1513685,0.27622733,0.8520442
0.55133545,0.78371114,0.5834045,-0.7316677,0.030921891,0.76426893,0.4725605,2.3863752,2.1081095,1.1226989,0.2643563,0.7916165
0.50521636,0.75648713,0.6044786,-0.69005597,-0.011553299,0.7552579,0.44949582,2.1251223,1.914824,1.1155316,0.24358195,0.737903
0.46832108,0.75648713,0.6466268,-0.6734112,-0.08234527,0.77327996,0.34570482,1.6379212,1.5161732,1.0295229,0.2317109,0.6774753
0.37608284,0.6748151,0.62555265,-0.5818654,-0.13897885,0.71020293,0.11505811,1.1577809,1.0692012,0.83600354,0.20796883,0.5834766
0.29306844,0.5455011,0.50964516,-0.4653525,-0.124820456,0.57503766,0.034331765,0.69882315,0.6665238,0.6711537,0.1693879,0.4626212
0.13626346,0.37535104,0.42534885,-0.2905832,-0.19561243,0.4308615,0.05739644,0.3740223,0.37659603,0.54214084,0.13674253,0.3820509
0.016353771,0.22561899,0.33051544,-0.14910325,-0.20977081,0.28668532,0.05739644,0.19043924,0.1470699,0.4310464,0.0862906,0.34176576
-0.029765341,0.12352896,0.23568206,-0.06587976,-0.18145403,0.17855316,0.05739644,0.07040415,-0.02205465,0.33070302,0.041774172,0.29476643
-0.12200357,0.02143891,0.17245977,0.04231078,-0.20977081,0.08844303,0.05739644,-0.035509165,-0.10259014,0.2626129,0.012096559,0.2544813
-0.1773465,-0.012591104,0.17245977,0.09224487,-0.23808761,0.061410002,0.0458641,-0.08493538,-0.15896499,0.2626129,-0.026484342,0.20748195
-0.21424177,-0.06023312,0.16192271,0.13385662,-0.2664044,0.02536595,-0.0002652323,-0.056691833,-0.16701853,0.2626129,-0.050226435,0.1806252
-0.2234656,-0.087457135,0.10923749,0.15050133,-0.23808761,-0.010678095,-0.0002652323,-0.06375272,-0.15091145,0.2626129,-0.041323148,0.16719683
-0.20501797,-0.067039125,0.13031158,0.12553427,-0.23808761,0.016354939,-0.023329906,-0.06375272,-0.1428579,0.2626129,-0.041323148,0.14705426
-0.14967503,-0.046621118,0.088163406,0.09224487,-0.16729563,0.016354939,-0.057926904,-0.06375272,-0.1267508,0.26619658,-0.041323148,0.12691168
-0.0943321,-0.033009112,0.06708931,0.058955476,-0.110662065,0.007343928,-0.06945925,-0.06375272,-0.11869724,0.28411505,-0.041323148,0.106769115
-0.075884454,-0.0057851025,0.06708931,0.03398843,-0.09650367,0.02536595,0.034331765,-0.028448278,-0.11064369,0.2948661,-0.044290908,0.14034006
-0.011317696,0.007826903,0.024941133,0.009021382,-0.02571169,0.016354939,0.11505811,-0.028448278,-0.09453659,0.31636828,-0.026484342,0.1873394
0.025577594,0.02143891,0.014404091,-0.015945667,0.0026050985,0.02536595,0.034331765,-0.007265615,-0.078429505,0.3522052,0.0031932734,0.22762454
0.053249057,0.05546892,0.024941133,-0.04923507,0.016763495,0.04338798,-0.011797569,0.0139170475,-0.06634917,0.38087472,0.03583865,0.28133804
0.053249057,0.07588692,0.05655227,-0.06587976,0.0026050985,0.07943202,-0.08099159,-0.014326502,-0.046215303,0.40237686,0.056612983,0.30148062
0.04402523,0.09630493,0.10923749,-0.08252446,-0.039870083,0.106465064,-0.15018559,-0.042570055,-0.038161747,0.40596056,0.047709696,0.28133804
0.053249057,0.12352896,0.13031158,-0.1074915,-0.054028478,0.14250912,-0.19631495,-0.06375272,-0.062322397,0.40596056,0.047709696,0.26119548
0.053249057,0.15075296,0.1829968,-0.115813866,-0.08234527,0.17855316,-0.24244425,-0.08493538,-0.08245627,0.40596056,0.041774172,0.2477671
0.03480141,0.16436496,0.21460795,-0.12413621,-0.124820456,0.2055862,-0.21937957,-0.12023982,-0.10259014,0.40596056,0.029903127,0.22091034
0.04402523,0.19839498,0.2567561,-0.1407809,-0.13897885,0.24163024,-0.2770413,-0.1343616,-0.1267508,0.40237686,0.03287089,0.21419616
0.016353771,0.19839498,0.28836727,-0.12413621,-0.18145403,0.25064126,-0.2885736,-0.09905715,-0.15493822,0.3844584,0.044741936,0.23433872
0.025577594,0.24603699,0.35158953,-0.16574796,-0.22392921,0.30470732,-0.2885736,-0.0708136,-0.14688466,0.3916258,0.07441955,0.2544813
-0.0020938772,0.22561899,0.35158953,-0.1407809,-0.252246,0.29569632,-0.3577676,-0.056691833,-0.11064369,0.3844584,0.098161645,0.26790968
-0.011317696,0.31409702,0.49910817,-0.190715,-0.35135475,0.4218505,-0.33470294,-0.021387389,-0.06634917,0.40954423,0.13377477,0.30819482
0.2838446,0.6407851,0.6782379,-0.5236089,-0.23808761,0.71020293,-0.40389696,-0.0002047262,-0.034134977,0.48480177,0.19016224,0.43576443
0.4037543,0.7020391,0.6150156,-0.6151548,-0.110662065,0.7282249,-0.38083228,-0.0002047262,-0.034134977,0.49555287,0.1871945,0.45590702
0.29306844,0.68162113,0.7309232,-0.54857606,-0.2664044,0.76426893,-0.4615586,-0.056691833,-0.07037595,0.49555287,0.18125896,0.44247866
0.44987342,0.7292631,0.62555265,-0.6484442,-0.08234527,0.74624693,-0.7498671,-0.07787449,-0.078429505,0.47405073,0.23764643,0.5431915
0.66202134,0.7224571,0.36212656,-0.73999,0.2716146,0.6291038,-0.7959964,-0.11317893,-0.11064369,0.45254856,0.255453,0.56333405
0.5328878,0.44341105,0.07762636,-0.50696427,0.35656494,0.32272938,-0.68067294,-0.14848337,-0.1267508,0.44179747,0.22577539,0.48276377
0.44987342,0.259649,-0.11204046,-0.357162,0.41319853,0.12448709,-0.65760833,-0.14848337,-0.1428579,0.40954423,0.20796883,0.40890765
0.42220193,0.17117096,-0.21741089,-0.2905832,0.46983215,0.02536595,-0.5884143,-0.20497046,-0.19117919,0.40237686,0.19016224,0.36190835
0.21005404,0.02143891,-0.20687386,-0.1074915,0.29993138,-0.06474417,-0.48462328,-0.15554425,-0.17104532,0.37012362,0.1545491,0.29476643
0.1547111,0.048662916,-0.10150341,-0.099169165,0.18666422,-0.010678095,-0.5192203,-0.233214,-0.21936661,0.37370732,0.15751687,0.30819482
-0.029765341,-0.16912916,-0.22794797,0.11721192,0.13003065,-0.20892036,-0.2770413,-0.028448278,-0.11869724,0.3450378,0.110032685,0.20748195
-0.075884454,-0.0057851025,0.07762636,0.04231078,-0.110662065,0.034376964,-0.49615562,-0.1908487,-0.23144694,0.3522052,0.1397103,0.24105293
-0.1773465,-0.38692123,-0.39654067,0.32527065,0.13003065,-0.42518464,0.18425213,0.20456101,0.0021059995,0.32353565,0.07738731,0.12691168
-0.6108662,-0.046621118,0.62555265,0.3003036,-0.8893737,0.23261924,1.0722418,1.1648418,0.36854252,0.44538116,0.115968205,0.03291303
0.053249057,1.0083092,1.5001276,-0.6484442,-0.97432417,1.3049297,0.7724012,1.5037643,0.88799644,1.226626,0.641262,0.8654726
2.9218578,2.2129717,0.088163406,-2.6707752,2.182998,1.5031719,-1.5917275,1.4260945,2.345689,2.9862185,1.8699152,3.2020106
5.3016033,2.9548259,-1.4818562,-4.1937647,5.057152,1.3229518,-4.6131988,-1.052277,2.414144,4.813902,3.0510843,5.464692
2.0917137,-0.114681125,-2.5671718,-0.8731476,3.3298278,-1.1730987,-2.364394,-3.2340913,-0.17507209,2.6708536,1.5048805,2.9200146
-2.1604683,-2.1564817,-0.8707077,2.2976673,-1.0734329,-1.7948585,0.5186898,-2.6621594,-2.981734,-1.2676234,-0.73874706,-0.95407283
-2.2988257,-1.9931377,-0.45976296,2.2560556,-1.4557096,-1.5155171,1.1760329,-0.6286237,-2.5669763,-1.586572,-0.86042535,-1.3770669
-1.9390966,-2.2517657,-1.2711154,2.2560556,-0.6345226,-2.0291448,2.5368483,0.64939696,-1.2904887,-0.85549897,-0.6022301,-1.1219276
-1.6439342,-1.9659137,-1.1657449,1.9398065,-0.46462193,-1.7948585,2.9174156,0.8047365,-0.9200254,-0.5616362,-0.43306765,-0.8265032
-0.73999965,-1.0879395,-0.83909655,0.99938095,0.0026050985,-1.0739776,1.6488587,1.0377457,-0.12272401,0.11209784,-0.05616196,-0.32293904
-0.24191324,-0.18954715,-0.017207049,0.22540246,-0.16729563,-0.12782124,0.62248087,0.72000575,0.15512344,0.40237686,0.13377477,-0.0073721083
-0.11277975,-0.046621118,0.05655227,0.08392253,-0.124820456,-0.0016670856,0.3803018,0.52230096,0.3000873,0.50630397,0.19906555,0.26790968
-0.13122737,0.06908092,0.2567561,0.017343732,-0.2664044,0.15152013,0.13812278,0.5081791,0.39270315,0.6066473,0.29106614,0.40890765
-0.06666063,0.10311094,0.23568206,-0.032590367,-0.20977081,0.16053115,0.17271979,0.48699653,0.41686377,0.63531685,0.3237115,0.4693354
-0.02054152,0.11672295,0.2040709,-0.06587976,-0.15313724,0.16053115,0.11505811,0.51524,0.47323865,0.6639864,0.3326148,0.4693354
0.04402523,0.19839498,0.24621908,-0.1407809,-0.13897885,0.23261924,0.08046111,0.48699653,0.5135064,0.703407,0.3563569,0.5029063
0.108592,0.21200697,0.2040709,-0.18239266,-0.054028478,0.22360823,0.05739644,0.51524,0.61820257,0.7356602,0.3890023,0.5230489
0.1916064,0.293679,0.23568206,-0.26561615,-0.02571169,0.29569632,0.06892877,0.59997076,0.69471127,0.8145014,0.45429304,0.5431915
0.31151608,0.34132102,0.17245977,-0.34883964,0.13003065,0.29569632,0.1496551,0.71294487,0.84772867,0.8933426,0.48397067,0.57676244
0.42220193,0.42299306,0.16192271,-0.44870785,0.214981,0.34976238,0.19578446,0.8753454,0.984639,0.9614328,0.5195838,0.6640469
0.5328878,0.47063506,0.119774535,-0.5402537,0.32824814,0.3677844,0.25344613,1.0589284,1.1900045,1.0474414,0.55519694,0.70433205
0.523664,0.450217,0.09870044,-0.5152866,0.32824814,0.33174038,0.29957548,1.2778159,1.4195307,1.1621195,0.58784235,0.7781881
0.6896928,0.5455011,0.05655227,-0.6484442,0.48399046,0.38580644,0.34570482,1.6167386,1.6691908,1.2803813,0.6353265,0.9393287
0.82805014,0.6680091,0.088163406,-0.7816018,0.5689409,0.47591656,0.28804314,1.8285651,1.9188508,1.3843085,0.67984295,0.9796138
0.7911548,0.6748151,0.14084864,-0.7649571,0.5123073,0.5029496,0.28804314,2.0474527,2.0879755,1.4631497,0.70655274,1.0400414
0.7911548,0.69523317,0.17245977,-0.7816018,0.4981489,0.5299826,0.2765108,2.132183,2.188645,1.4380637,0.70061725,1.1071835
0.7542595,0.68842715,0.2040709,-0.7649571,0.44151533,0.53899366,0.21884914,2.0545135,2.1604574,1.3843085,0.6768752,1.0668983
0.70814043,0.68842715,0.2567561,-0.73999,0.37072337,0.5660267,0.24191381,1.962722,2.0275736,1.3341367,0.6590686,1.0467557
0.6896928,0.68842715,0.2778302,-0.7316677,0.34240654,0.57503766,0.16118744,1.6591039,1.7819405,1.2517118,0.6382943,1.0131848
0.7358119,0.68842715,0.22514498,-0.7566348,0.41319853,0.5480047,-0.0925239,1.214268,1.3993969,1.1262827,0.61752,0.9796138
0.6343499,0.6135611,0.22514498,-0.6650889,0.32824814,0.5029496,-0.26550892,0.79061466,0.96450514,0.9399306,0.578939,0.87890095
0.41297814,0.44341105,0.21460795,-0.4653525,0.17250583,0.38580644,-0.34623525,0.50111836,0.6020954,0.7822482,0.54926145,0.7177604
0.1916064,0.252843,0.17245977,-0.24064909,0.030921891,0.23261924,-0.34623525,0.21162191,0.28398022,0.62098205,0.46319634,0.5431915
-0.038989164,0.08949893,0.17245977,-0.032590367,-0.15313724,0.1334981,-0.34623525,0.0068561593,0.0504273,0.44538116,0.36526018,0.42905024
-0.1773465,-0.033009112,0.15138568,0.10056722,-0.23808761,0.04338798,-0.34623525,-0.028448278,-0.086483054,0.37729102,0.34151807,0.3887651
-0.20501797,-0.087457135,0.088163406,0.14217897,-0.20977081,-0.010678095,-0.34623525,-0.08493538,-0.19923274,0.34145412,0.32074374,0.34176576
-0.19579415,-0.114681125,0.03547818,0.16714601,-0.16729563,-0.055733155,-0.34623525,-0.12730071,-0.22742015,0.2948661,0.2999694,0.28805226
-0.21424177,-0.15551715,0.0038670439,0.19211306,-0.16729563,-0.10078822,-0.40389696,-0.18378781,-0.21936661,0.29128242,0.27622733,0.23433872
-0.2234656,-0.19635315,-0.059355225,0.22540246,-0.124820456,-0.15485428,-0.40389696,-0.19790958,-0.21936661,0.3020335,0.25842077,0.22762454
-0.2234656,-0.22357719,-0.09096636,0.24204716,-0.110662065,-0.18188733,-0.41542926,-0.16966602,-0.20325951,0.31278458,0.26732403,0.2477671
-0.23268943,-0.19635315,-0.03828113,0.22540246,-0.15313724,-0.14584327,-0.4615586,-0.16966602,-0.19923274,0.32353565,0.2702918,0.2477671
-0.23268943,-0.16232315,0.014404091,0.20875776,-0.18145403,-0.10078822,-0.4615586,-0.16966602,-0.19923274,0.33428672,0.27325958,0.2477671
-0.23268943,-0.13509914,0.06708931,0.18379071,-0.22392921,-0.06474417,-0.48462328,-0.16966602,-0.19923274,0.33428672,0.28513062,0.2477671
-0.23268943,-0.10106914,0.09870044,0.16714601,-0.23808761,-0.028700123,-0.5192203,-0.16966602,-0.19923274,0.33428672,0.28513062,0.28133804
-0.23268943,-0.067039125,0.16192271,0.14217897,-0.29472116,0.02536595,-0.5538173,-0.1908487,-0.19923274,0.33428672,0.29106614,0.28133804
-0.23268943,-0.073845126,0.15138568,0.15050133,-0.2805628,0.016354939,-0.5884143,-0.21909225,-0.19923274,0.33428672,0.32074374,0.28133804
-0.23268943,-0.10106914,0.10923749,0.15882367,-0.252246,-0.01968911,-0.62301135,-0.24027489,-0.19923274,0.33428672,0.31480825,0.28133804
-0.23268943,-0.09426313,0.119774535,0.15882367,-0.252246,-0.010678095,-0.6345436,-0.24027489,-0.20728628,0.33428672,0.31480825,0.27462387
-0.23268943,-0.09426313,0.119774535,0.15882367,-0.252246,-0.010678095,-0.57688195,-0.24027489,-0.22742015,0.3450378,0.31184047,0.29476643
-0.23268943,-0.09426313,0.119774535,0.15882367,-0.252246,-0.010678095,-0.57688195,-0.26851848,-0.23950048,0.3522052,0.29700166,0.314909
-0.23268943,-0.09426313,0.119774535,0.15882367,-0.252246,-0.010678095,-0.57688195,-0.26851848,-0.26768792,0.3486215,0.30590495,0.314909
-0.24191324,-0.06023312,0.1829968,0.14217897,-0.30887958,0.034376964,-0.57688195,-0.22615314,-0.2717147,0.3522052,0.28216285,0.30819482
-0.26958472,-0.039815117,0.24621908,0.14217897,-0.36551315,0.07943202,-0.57688195,-0.21203136,-0.24755405,0.3486215,0.32964703,0.32162318
-0.23268943,0.014632906,0.28836727,0.09224487,-0.37967154,0.1334981,-0.5999466,-0.18378781,-0.22742015,0.35937256,0.37416345,0.30819482
0.0071299463,0.252843,0.3726636,-0.1574256,-0.252246,0.32272938,-0.72680235,-0.16260514,-0.21533984,0.3952095,0.4008733,0.29476643
0.17315875,0.35493302,0.34105247,-0.2905832,-0.09650367,0.3767954,-0.81906104,-0.12730071,-0.19117919,0.3916258,0.46319634,0.26119548
0.21927786,0.34812704,0.2778302,-0.31555024,-0.011553299,0.34976238,-0.8305934,-0.18378781,-0.17909886,0.37729102,0.47506738,0.34847996
0.33918753,0.37535104,0.1829968,-0.38212904,0.13003065,0.32272938,-1.0035784,-0.36031,-0.21131305,0.37370732,0.4720996,0.4693354
0.32996374,0.33451504,0.14084864,-0.34883964,0.15834744,0.2776743,-1.1765635,-0.40973622,-0.23950048,0.3522052,0.44835752,0.42233604
0.36685902,0.20520097,-0.10150341,-0.2905832,0.35656494,0.08844303,-1.095837,-0.45210153,-0.27976826,0.3557889,0.4335187,0.3753367
0.32996374,-0.026203109,-0.40707773,-0.13245855,0.5264657,-0.19089834,-0.9805137,-0.423858,-0.26768792,0.33070302,0.40680885,0.30819482
0.17315875,-0.06023312,-0.29117024,-0.040912718,0.32824814,-0.1638653,-0.9689813,-0.51564956,-0.3240628,0.28411505,0.3979056,0.27462387
0.108592,-0.17593516,-0.39654067,0.058955476,0.35656494,-0.28100845,-0.8075287,-0.4450406,-0.3321163,0.2554455,0.36526018,0.20076777
-0.103555925,-0.19635315,-0.1963368,0.17546836,0.059238672,-0.20892036,-0.853658,-0.5085886,-0.39654472,0.2590292,0.36822793,0.19405359
-0.2603609,-0.43456325,-0.36492956,0.3835271,0.045080274,-0.43419567,-0.64607596,-0.38855353,-0.32808954,0.27336398,0.34448585,0.11348331
-0.3433753,-0.33247322,-0.13311453,0.35856006,-0.16729563,-0.27199745,-0.65760833,-0.423858,-0.34822342,0.2518618,0.3326148,0.10005493
-0.32492766,-0.44136927,-0.3122443,0.42513883,-0.039870083,-0.42518464,-0.41542926,-0.3532491,-0.320036,0.30920088,0.32074374,0.012770461
-0.5924185,-0.61151934,-0.27009615,0.64151996,-0.2664044,-0.5152948,0.5417545,0.70588404,-0.0019207759,0.23752706,0.21390434,-0.32293904
-0.6569852,0.49785903,1.5212015,-0.015945667,-1.5265015,0.9805332,0.5994162,0.9530151,0.21149829,0.54930824,0.5255193,0.19405359
1.5382844,1.6344614,0.78360844,-1.6887378,0.6538912,1.4130619,-0.87672275,1.3272421,1.5685214,1.982785,1.5078483,1.9934564
4.886532,3.3563802,-0.38600364,-4.2603436,4.009431,2.0528438,-4.555537,-0.3532491,2.402064,4.4555326,3.1876013,5.0349846
4.0194926,1.5051473,-2.2615976,-2.7290316,4.604083,0.02536595,-4.509408,-3.2905786,0.5296135,4.147335,2.8285024,4.5918474
-0.97981906,-2.3062139,-2.4512644,1.856583,0.8945839,-2.5698056,-0.64607596,-3.2905786,-2.695833,-0.3573658,0.059580747,-0.0073721083
-2.9075978,-2.632902,-0.7548002,2.9218435,-1.724719,-2.065189,0.6916749,-1.744244,-3.4931345,-2.2818081,-0.9316516,-1.8672026
-2.0959017,-2.6260958,-1.6609861,2.5556602,-0.49293873,-2.4436514,1.7065202,-0.11317893,-1.9710137,-1.3249626,-0.57255244,-1.4844939
-2.1051254,-2.537618,-1.5240043,2.505726,-0.59204745,-2.3355193,2.7905598,0.51524,-1.3106226,-0.9307564,-0.37371242,-1.2226404
-1.2011908,-1.5643597,-1.0498374,1.498722,-0.22392921,-1.479473,1.6949879,0.74824935,-0.53748184,-0.2606061,0.03583865,-0.55793566
-0.2972562,-0.61151934,-0.6072816,0.50836235,0.17250583,-0.659471,0.41489884,0.61409247,-0.018027874,0.15868583,0.29106614,-0.1416559
-0.3987182,-0.3801152,-0.13311453,0.4168165,-0.20977081,-0.30804148,0.24191381,0.33871788,0.022239873,0.27336398,0.37713122,0.059769794
-0.3157038,-0.3528912,-0.1752627,0.35856006,-0.124820456,-0.30804148,0.02279943,0.3810832,0.16720377,0.33070302,0.43945426,0.106769115
-0.27880853,-0.23718916,-0.04881818,0.27533653,-0.18145403,-0.17287631,-0.115588576,0.33871788,0.15512344,0.33787042,0.50177723,0.14034006
-0.24191324,-0.23718916,-0.09096636,0.25036952,-0.124820456,-0.19089834,-0.10405624,0.3810832,0.24371248,0.41312793,0.48990616,0.1873394
-0.19579415,-0.14190514,0.014404091,0.17546836,-0.15313724,-0.08276619,-0.12712091,0.34577876,0.31619442,0.44179747,0.48990616,0.20748195
-0.16812268,-0.12148713,0.0038670439,0.15050133,-0.124820456,-0.073755175,-0.16171792,0.41638765,0.42089057,0.5242224,0.5284871,0.26790968
-0.057436813,-0.067039125,-0.03828113,0.06727783,-0.011553299,-0.055733155,-0.18478258,0.49405745,0.5175332,0.58156145,0.5581647,0.32833737
-0.011317696,-0.033009112,-0.03828113,0.02566608,0.016763495,-0.028700123,-0.15018559,0.55054456,0.61820257,0.62098205,0.60861665,0.40890765
0.053249057,0.007826903,-0.059355225,-0.024268012,0.07339707,-0.01968911,-0.06945925,0.7270667,0.7752468,0.6783211,0.6650041,0.40219346
0.16393493,0.06227492,-0.09096636,-0.1074915,0.17250583,0.007343928,0.06892877,0.9035889,0.97255874,0.79299927,0.7273271,0.47604957
0.24694934,0.12352896,-0.09096636,-0.18239266,0.2574562,0.04338798,0.17271979,1.1860244,1.2222188,0.947098,0.79261786,0.6170476
0.3576352,0.21881297,-0.06989227,-0.2905832,0.31408978,0.11547607,0.28804314,1.4896426,1.504093,1.0796946,0.8490053,0.70433205
0.50521636,0.35493302,-0.03828113,-0.44038546,0.41319853,0.21459721,0.28804314,1.7297127,1.7618066,1.1979564,0.88758624,0.8117591
0.6066784,0.44341105,-0.006670003,-0.5402537,0.46983215,0.28668532,0.29957548,1.9839046,1.9711989,1.2767977,0.9172638,0.89232934
0.66202134,0.504665,0.024941133,-0.6068325,0.48399046,0.34976238,0.33417246,2.082757,2.096029,1.2875488,0.9202315,0.96618545
0.6159022,0.49785903,0.05655227,-0.5818654,0.4273569,0.34976238,0.34570482,2.082757,2.1161628,1.2839651,0.8994572,0.93261445
0.5605593,0.46382904,0.07762636,-0.5319313,0.37072337,0.33174038,0.33417246,2.02627,2.023547,1.2767977,0.88758624,0.8654726
0.46832108,0.43660504,0.14084864,-0.4819972,0.2574562,0.3407514,0.16118744,1.7579563,1.8020743,1.1657032,0.8668119,0.8184732
0.31151608,0.40257505,0.26729318,-0.38212904,0.059238672,0.3767954,-0.034862243,1.3272421,1.4195307,0.9972697,0.85494083,0.77147394
0.2377255,0.36854503,0.28836727,-0.33219492,-0.02571169,0.3677844,-0.18478258,0.9318325,0.984639,0.81808513,0.8163599,0.70433205
0.053249057,0.15075296,0.17245977,-0.12413621,-0.08234527,0.16954213,-0.34623525,0.59997076,0.54974735,0.62098205,0.7481015,0.57676244
-0.12200357,-0.053427115,0.05655227,0.09224487,-0.124820456,-0.010678095,-0.43849394,0.28223076,0.18733765,0.4310464,0.66203636,0.42905024
-0.16812268,-0.16912916,-0.06989227,0.18379071,-0.06818687,-0.13683225,-0.4269616,0.056282375,-0.034134977,0.2590292,0.59081006,0.32162318
-0.24191324,-0.3256672,-0.22794797,0.30862594,-0.02571169,-0.3170525,-0.3923646,-0.056691833,-0.21533984,0.1336,0.5581647,0.27462387
-0.32492766,-0.40053323,-0.24902202,0.39184946,-0.06818687,-0.3711186,-0.40389696,-0.16966602,-0.31198242,0.0905957,0.5255193,0.22762454
-0.36182296,-0.4277573,-0.24902202,0.42513883,-0.110662065,-0.38914058,-0.40389696,-0.22615314,-0.36030373,0.076260924,0.48990616,0.1873394
-0.44483736,-0.4890113,-0.24902202,0.50003994,-0.16729563,-0.42518464,-0.40389696,-0.21909225,-0.3683573,0.05475878,0.47803515,0.14034006
-0.4817326,-0.5230413,-0.2595591,0.53332937,-0.19561243,-0.4522177,-0.3923646,-0.19790958,-0.35627696,0.033256624,0.47803515,0.106769115
-0.36182296,-0.5026233,-0.3543925,0.4667506,-0.02571169,-0.47925073,-0.34623525,-0.17672691,-0.36433053,0.015338168,0.46913183,0.1201975
-0.3433753,-0.48220527,-0.3543925,0.4501059,-0.02571169,-0.47023973,-0.34623525,-0.16260514,-0.35627696,0.026089242,0.4602286,0.09334074
-0.3525991,-0.46178725,-0.3122443,0.44178352,-0.054028478,-0.43419567,-0.34623525,-0.1343616,-0.36433053,0.047591392,0.46319634,0.07991236
