I,II,III,aVR,aVL,aVF,V1,V2,V3,V4,V5,V6
-0.26700827,-1.0376192,-0.19458827,0.5512454,-0.055546124,-0.68501776,0.30696324,0.15617579,-0.024150642,-0.13322085,-0.34547892,-0.30799124
-0.24371767,-1.0263674,-0.21689577,0.52217937,-0.03479286,-0.706754,0.35631424,0.15210852,0.013147644,-0.11302875,-0.34547892,-0.30799124
-0.22974329,-0.992612,-0.21689577,0.5003798,-0.024416223,-0.68501776,0.38921493,0.1968487,0.08152784,-0.07264451,-0.34547892,-0.30799124
-0.2111108,-0.9588566,-0.21689577,0.47858024,-0.014039591,-0.6741497,0.40566525,0.29039636,0.1561244,-0.032260273,-0.34547892,-0.31656253
-0.19247831,-0.90259755,-0.21689577,0.44224766,-0.008851274,-0.6415453,0.43034074,0.327002,0.23693734,0.0013932593,-0.40216026,-0.4194177
-0.17850395,-0.8688421,-0.22247267,0.42044806,0.0067136763,-0.6415453,0.54549307,0.43275154,0.33018306,0.048508205,-0.40845814,-0.44513154
-0.16452958,-0.8238349,-0.21131891,0.391382,0.011901994,-0.59807277,0.6030692,0.5385011,0.34883222,0.10235385,-0.37696853,-0.43656024
-0.12260647,-0.74507225,-0.22247267,0.34051636,0.037843578,-0.57633656,0.6112944,0.5873085,0.44829428,0.13600738,-0.36437267,-0.43656024
-0.099315844,-0.6663096,-0.21131891,0.29691726,0.043031897,-0.52199596,0.6524203,0.7255964,0.6347857,0.21677586,-0.32658514,-0.43656024
-0.05739274,-0.59879875,-0.22804953,0.2387851,0.0741618,-0.5002597,0.66887057,0.9086244,0.7591134,0.33792856,-0.32028723,-0.43656024
0.07769284,-0.52003604,-0.3563176,0.107987754,0.20905803,-0.59807277,0.72644675,1.1363927,1.032634,0.56004184,-0.26990384,-0.3937039
0.18017155,-0.46377704,-0.4511245,0.0135229975,0.31282437,-0.6632815,0.8086984,1.4170357,1.3061547,0.74850166,-0.15024325,-0.3937039
0.26401776,-0.48628065,-0.5570851,-0.044609163,0.4114024,-0.7828309,0.8662746,1.673275,1.5485936,0.903308,-0.12505156,-0.38513264
0.41773584,-0.61005056,-0.80246747,-0.124540865,0.6085584,-1.0762702,0.9238508,1.9539181,1.8656292,1.132152,-0.1124557,-0.3422763
0.57611203,-0.8913458,-1.131503,-0.16087347,0.85240936,-1.5327315,0.98142695,2.2101574,2.0521207,1.2196511,-0.08726402,-0.35941884
0.74846256,-0.9476048,-1.3657317,-0.27713776,1.0547537,-1.7826982,0.94030106,2.3606472,2.157799,1.2398432,-0.07466817,-0.32513377
0.8416251,-1.048871,-1.5274612,-0.31347036,1.1792732,-1.9891926,0.85804945,2.4175892,2.13915,1.1792669,-0.055774394,-0.29941997
0.8183344,-1.4314325,-1.6891904,-0.16814,1.241533,-2.3369725,0.7922481,2.275234,2.0645533,1.1119599,-0.08726402,-0.30799124
0.82299256,-1.4426843,-1.7003442,-0.17540652,1.2519097,-2.3478405,0.7099964,1.9498508,1.8034652,1.037922,-0.1124557,-0.27370617
0.687907,-1.3639216,-1.4995768,-0.095474795,1.0806953,-2.1087418,0.6359699,1.5431218,1.4491315,0.86292374,-0.14394534,-0.2651349
0.48294955,-1.2964109,-1.220733,0.04985559,0.8368443,-1.8153026,0.50436723,1.071316,1.1072307,0.6408104,-0.15024325,-0.2651349
0.28265026,-1.0151156,-0.8415056,0.107987754,0.5514869,-1.3045008,0.3727646,0.6686543,0.69073313,0.37831283,-0.12505156,-0.22227857
0.049744096,-0.6663096,-0.38977888,0.18065295,0.20905803,-0.6958859,0.2740626,0.34327117,0.4047796,0.24369867,-0.12505156,-0.17942224
-0.038760245,-0.351259,-0.12208893,0.14432034,0.037843578,-0.28289723,0.20826124,0.062628135,0.1872063,0.17639163,-0.12505156,-0.14513716
-0.1319227,-0.21623725,0.05079416,0.17338642,-0.09705266,-0.043798532,0.13423473,-0.10413077,0.025580406,0.10235385,-0.12505156,-0.10228084
-0.21576893,-0.17123002,0.17348537,0.22425205,-0.20081899,0.08661894,0.0684334,-0.18140928,-0.11117997,0.06870032,-0.12505156,-0.059424493
-0.18316208,-0.10371917,0.1679085,0.17338642,-0.18006572,0.10835518,0.051983062,-0.20988032,-0.19820932,0.03504679,-0.15024325,-0.067995764
-0.1691877,-0.036208317,0.18463914,0.14432034,-0.18006572,0.15182768,0.051983062,-0.22208218,-0.17956015,-0.0053374474,-0.15654118,-0.10228084
-0.21576893,0.020050727,0.26829222,0.15885338,-0.24232551,0.27137703,0.019082393,-0.25055322,-0.1671274,-0.03899098,-0.15654118,-0.11942336
-0.22508518,0.07630978,0.30175346,0.15158686,-0.26826712,0.32571766,0.010857226,-0.25055322,-0.14847825,-0.07264451,-0.15024325,-0.14513716
-0.22508518,0.08756158,0.3184841,0.14432034,-0.27864376,0.358322,0.010857226,-0.25055322,-0.12982911,-0.09956733,-0.17543496,-0.17085098
-0.25303394,0.08756158,0.34636846,0.17338642,-0.30458534,0.36919016,0.010857226,-0.25055322,-0.12361273,-0.09956733,-0.26990384,-0.18799351
-0.25769204,0.08756158,0.35752222,0.17338642,-0.31496197,0.3909264,0.010857226,-0.25055322,-0.14847825,-0.11975944,-0.2887976,-0.2137073
-0.28564078,0.08756158,0.3798297,0.19518597,-0.3357152,0.4126626,0.010857226,-0.2586878,-0.16091102,-0.13322085,-0.27620175,-0.23942111
-0.28564078,0.098813385,0.39656034,0.19518597,-0.34609187,0.42353076,0.010857226,-0.28715882,-0.14226188,-0.13322085,-0.2887976,-0.2651349
-0.28564078,0.14382061,0.41886783,0.17338642,-0.35646847,0.47787136,0.010857226,-0.31156257,-0.22307481,-0.16014369,-0.27620175,-0.2651349
-0.29961511,0.1325688,0.4244447,0.18791947,-0.36684513,0.47787136,-0.0055931094,-0.33189902,-0.3287533,-0.1736051,-0.2950955,-0.2651349
-0.28098264,0.17757605,0.4244447,0.15885338,-0.35646847,0.4887395,-0.03849378,-0.34816816,-0.34118605,-0.16014369,-0.3139893,-0.2651349
-0.2716664,0.20007966,0.43002155,0.14432034,-0.35128018,0.5213438,-0.030268608,-0.36443734,-0.37226796,-0.1736051,-0.3139893,-0.2651349
-0.2716664,0.20007966,0.4244447,0.14432034,-0.35128018,0.51047575,-0.030268608,-0.38884106,-0.3971335,-0.23418146,-0.32658514,-0.2651349
-0.30893138,0.23383509,0.4857903,0.1661199,-0.39797503,0.5865526,-0.030268608,-0.4132448,-0.44064817,-0.30148855,-0.34547892,-0.27370617
-0.30427325,0.27884233,0.5025209,0.15158686,-0.40316334,0.61915696,-0.030268608,-0.4254467,-0.47794643,-0.3687956,-0.34547892,-0.29941997
-0.31824765,0.31259775,0.5359822,0.15158686,-0.4291049,0.67349756,-0.12074546,-0.46205232,-0.49659556,-0.40244913,-0.37067062,-0.32513377
-0.3834614,0.33510137,0.62521213,0.18791947,-0.50692964,0.7713106,-0.20299713,-0.5067925,-0.5276775,-0.41591054,-0.37696853,-0.3508476
-0.35551265,0.38010862,0.6140584,0.15885338,-0.4861764,0.7821788,-0.22767262,-0.5067925,-0.54632664,-0.43610263,-0.37696853,-0.37656137
-0.38811952,0.32384956,0.62521213,0.2024525,-0.512118,0.7604426,-0.26879847,-0.55966735,-0.57119215,-0.4562948,-0.37696853,-0.3937039
-0.36482885,0.34635317,0.6084815,0.17338642,-0.4861764,0.7604426,-0.2605733,-0.62474394,-0.60227406,-0.47648692,-0.37696853,-0.3937039
-0.36017078,0.50387853,0.68098086,0.11525425,-0.5173063,0.9125963,-0.22767262,-0.6125421,-0.6209232,-0.44283336,-0.36437267,-0.3937039
-0.45799136,0.44761947,0.77021086,0.209719,-0.610696,0.9669368,-0.21122229,-0.6166094,-0.6520051,-0.43610263,-0.34547892,-0.40227517
-0.4114101,0.56013757,0.7757878,0.13705382,-0.58994275,1.0212775,-0.18654679,-0.63694584,-0.62713957,-0.43610263,-0.34547892,-0.3937039
-0.40209383,0.650152,0.7980953,0.10072123,-0.5951311,1.0864862,-0.15364611,-0.63287854,-0.5836249,-0.40244913,-0.33288306,-0.40227517
-0.3974357,0.67265564,0.809249,0.0861882,-0.6003194,1.1190907,-0.15364611,-0.6166094,-0.5587594,-0.40244913,-0.30769137,-0.38513264
-0.34619638,0.92019546,0.8705946,-0.03007612,-0.6003194,1.2929806,-0.15364611,-0.6003402,-0.5152447,-0.39571843,-0.32028723,-0.3508476
-0.26700827,1.178987,0.898479,-0.16814,-0.5691895,1.4451342,-0.16187128,-0.58813834,-0.49659556,-0.34187275,-0.28249967,-0.30799124
-0.20645268,1.415275,0.94309396,-0.29893732,-0.5536245,1.5972879,-0.14542094,-0.57186913,-0.44686452,-0.2611043,-0.22581834,-0.28227744
-0.21576893,1.3365123,0.91520965,-0.26260474,-0.5484362,1.5320791,-0.16187128,-0.6003402,-0.40334985,-0.20725863,-0.18173288,-0.2137073
0.0031628632,1.7303256,0.853864,-0.5605321,-0.39797503,1.6624966,-0.31814945,-0.58407104,-0.28523862,-0.12649015,0.038694475,0.009145642
0.10098345,1.8315918,0.7813646,-0.66952986,-0.30458534,1.6407604,-0.6142555,-0.63694584,-0.37848434,-0.1668744,0.09537579,0.009145642
-0.076025225,1.3815196,0.7757878,-0.38613555,-0.40316334,1.41253,-0.8116595,-0.7793009,-0.6644379,-0.3889877,-0.1124557,-0.11085211
-0.108632095,1.3702679,0.809249,-0.35706946,-0.43948156,1.4451342,-0.7623085,-0.78336823,-0.78876555,-0.57744753,-0.3139893,-0.18799351
-0.17384583,1.2127424,0.8148259,-0.25533822,-0.47579977,1.3799255,-0.7211827,-0.78336823,-0.85714567,-0.6784081,-0.42735195,-0.2908487
-0.35551265,1.2352461,1.0379008,-0.124540865,-0.68333244,1.608156,-0.6471562,-0.7711664,-0.8633621,-0.69860023,-0.3958623,-0.32513377
-0.4347007,1.0439653,1.0379008,0.006256477,-0.724839,1.5103428,-0.60603034,-0.7711664,-0.91930956,-0.7120616,-0.45884156,-0.47941658
-0.45799136,1.122728,1.1048234,-0.008276561,-0.77153385,1.6190242,-0.50732833,-0.74269533,-0.8509293,-0.68513876,-0.48403326,-0.47941658
-0.45333323,1.0102099,1.0434778,0.020789515,-0.74040395,1.5103428,-0.48265278,-0.76709914,-0.88822764,-0.73225373,-0.47143742,-0.5651293
-0.4999144,1.122728,1.1550152,0.028056035,-0.8182287,1.6624966,-0.3592753,-0.7020225,-0.78254914,-0.65148526,-0.46513948,-0.5222729
-0.6163675,-0.0024528895,0.73674965,0.47858024,-0.68333244,0.7169701,0.50436723,-0.12853451,-0.34118605,-0.543794,-0.7485461,-1.036549
-0.15521333,-1.6339651,-0.6240076,0.6529767,0.20386972,-1.3914458,1.4009105,1.2258731,0.7901952,0.18985304,-0.63518345,-1.5079687
2.54184,2.3154197,-1.8955348,-2.7259548,2.2999496,-0.72849023,-0.35105014,1.8522358,2.661326,3.3936694,3.0239108,2.2891028
5.8910303,5.893495,-4.131861,-6.497278,5.2002187,-1.1849514,-4.430733,-0.055323288,2.5929456,6.173451,6.8152614,6.46331
4.540175,4.397004,-3.261869,-4.956776,4.043224,-1.054534,-5.565806,-2.8780224,-1.4539182,1.7311848,3.3199131,4.3033504
0.65530014,1.0439653,-0.27266452,-0.85119283,0.49441546,0.23877266,-3.4519382,-3.4474432,-4.5185943,-3.7004952,-1.5672762,-0.12799463
-0.28098264,0.053806156,0.35752222,0.2024525,-0.3253386,0.36919016,-1.4696729,-1.4910767,-2.2371821,-2.0043573,-1.2145926,-1.0536915
-0.038760245,1.1677352,0.62521213,-0.34253645,-0.31496197,1.1734312,-0.5649045,-0.36443734,-0.40334985,-0.39571843,-0.3958623,-0.4194177
-0.34153825,0.9426991,0.8761715,-0.03734264,-0.6003194,1.3038487,-0.30169913,-0.39697567,-0.5836249,-0.6918695,-0.5659063,-0.6508419
-0.49525636,0.84143275,1.0100166,0.11525425,-0.7507805,1.3907936,-0.16187128,-0.2668224,-0.43443176,-0.48321757,-0.4147561,-0.59941435
-0.5092307,0.8639364,1.032324,0.11525425,-0.7663455,1.4233979,-0.14542094,-0.29122612,-0.5338939,-0.5976396,-0.50922495,-0.54798675
-0.49525636,1.1902388,1.1773226,-0.001010042,-0.82341695,1.7168373,-0.11252028,-0.24648592,-0.47794643,-0.50340974,-0.60369384,-0.7794109
-0.5092307,1.3252605,1.2665527,-0.03007612,-0.87530017,1.8798591,-0.07961961,-0.24241863,-0.50281197,-0.55052465,-0.64148134,-0.77083963
-0.5045726,1.2239943,1.210784,-0.001010042,-0.8441703,1.7711779,-0.054944113,-0.20174573,-0.47173005,-0.496679,-0.6162897,-0.7879822
-0.5232051,1.2352461,1.2330915,0.0135229975,-0.8701118,1.7929142,-0.013818276,-0.15700555,-0.44686452,-0.50340974,-0.63518345,-0.7622684
-0.45799136,1.2352461,1.1550152,-0.044609163,-0.7974754,1.7168373,-0.09606995,-0.17327471,-0.45308092,-0.496679,-0.6288855,-0.8051247
-0.40675196,1.122728,1.0434778,-0.051875677,-0.71446234,1.5646836,0.02730756,-0.14887096,-0.40334985,-0.4562948,-0.63518345,-0.9251225
-0.43935883,1.122728,1.0825158,-0.0228096,-0.7507805,1.5972879,0.25761223,-0.11226535,-0.3971335,-0.48321757,-0.67926896,-1.0022639
-0.44401696,1.4490305,1.255399,-0.124540865,-0.83379364,1.9233315,0.2658374,0.04229168,-0.21064207,-0.42937198,-0.64148134,-1.0708339
-0.43004256,1.1452316,1.0825158,-0.03734264,-0.74559224,1.608156,0.24938707,0.1602431,-0.01793426,-0.3687956,-0.60369384,-1.0279777
-0.37414512,1.0777208,0.9765552,-0.059142195,-0.66776747,1.4668704,0.23293675,0.22531973,0.05044593,-0.30148855,-0.55960834,-0.9765501
-0.30893138,1.1339798,0.9319402,-0.124540865,-0.6055077,1.4451342,0.20826124,0.3636076,0.13125888,-0.22072005,-0.5155229,-0.9336937
-0.25769204,1.0327135,0.82040274,-0.1318074,-0.52768296,1.2929806,0.22471158,0.49782816,0.280452,-0.09283663,-0.48403326,-0.88226616
-0.15987144,1.0552171,0.7144422,-0.21900563,-0.4239166,1.2060355,0.2987381,0.7011926,0.5042417,0.08216173,-0.43364984,-0.8479811
-0.029444002,1.0214617,0.54713595,-0.30620384,-0.2734554,1.0212775,0.39744008,0.93709546,0.72181505,0.2504294,-0.35807475,-0.77083963
0.07303471,0.9764545,0.39656034,-0.3716025,-0.14374752,0.8582556,0.4961421,1.1974021,1.0077685,0.44561988,-0.27620175,-0.70226955
0.22209466,0.87518823,0.1679085,-0.45880076,0.043031897,0.5756844,0.62774473,1.5105834,1.3310204,0.70138675,-0.1880308,-0.6508419
0.42239398,0.81892914,-0.09978143,-0.5895982,0.28169447,0.3039814,0.7757978,1.742419,1.5299445,0.82253945,-0.09985986,-0.62512815
0.58077013,0.69515926,-0.3563176,-0.6767964,0.48403883,-0.011194166,0.8333739,1.9498508,1.7350852,0.9235,-0.055774394,-0.59941435
0.6739327,0.41386408,-0.60170007,-0.6549968,0.65006495,-0.38071033,0.7675726,2.1166098,1.8531965,0.9167694,-0.062072318,-0.55655795
0.7950438,0.23383509,-0.8359287,-0.6913294,0.83165604,-0.6958859,0.7182216,2.1125424,1.7848163,0.8023473,-0.062072318,-0.5308442
0.89752257,0.20007966,-0.97535056,-0.7639946,0.95098734,-0.84803957,0.6606454,1.9295144,1.6045411,0.7552324,-0.062072318,-0.4965591
0.83696693,0.098813385,-0.9530431,-0.6840629,0.90948075,-0.88064396,0.6112944,1.6285349,1.3123711,0.6206182,-0.062072318,-0.44513154
0.6785907,0.14382061,-0.735545,-0.5750651,0.7175131,-0.6415453,0.5208176,1.2218058,0.97047025,0.43215847,-0.062072318,-0.40227517
0.4736333,0.44761947,-0.34516388,-0.50966644,0.42177904,-0.11987539,0.3727646,0.7418656,0.6534348,0.28408292,-0.062072318,-0.35941884
0.2500434,0.67265564,0.028486665,-0.40793514,0.12604496,0.34745386,0.28228775,0.33513656,0.3426158,0.16966093,-0.062072318,-0.30799124
0.06371847,0.9652026,0.40213722,-0.35706946,-0.15412414,0.8582556,0.17536058,0.062628135,0.056662306,0.09562315,-0.08726402,-0.2651349
-0.06205086,1.122728,0.63078904,-0.31347036,-0.33052692,1.151695,0.12600957,-0.15700555,-0.16091102,-0.065913804,-0.09356194,-0.22227857
-0.19713643,1.0327135,0.74232656,-0.18267304,-0.4550465,1.2169037,0.13423473,-0.29122612,-0.25415674,-0.20052792,-0.09356194,-0.22227857
-0.25769204,0.9989581,0.8036722,-0.124540865,-0.5224947,1.2712443,0.13423473,-0.34003362,-0.26037312,-0.1803358,-0.09356194,-0.2137073
-0.23440142,0.9426991,0.7479034,-0.124540865,-0.48098812,1.1842993,0.13423473,-0.34816816,-0.24172397,-0.16014369,-0.09356194,-0.17942224
-0.22042705,0.8976918,0.7088653,-0.11727436,-0.4550465,1.1190907,0.12600957,-0.38884106,-0.22307481,-0.13995157,-0.09356194,-0.17942224
-0.2111108,0.830181,0.66425025,-0.102741316,-0.4291049,1.0430137,0.14245991,-0.40917754,-0.21064207,-0.11975944,-0.09356194,-0.16227971
-0.24371767,0.67265564,0.62521213,-0.03007612,-0.4239166,0.92346436,0.17536058,-0.37257195,-0.18577653,-0.106298044,-0.09356194,-0.12799463
-0.26235014,0.51513034,0.5694434,0.035322558,-0.41353998,0.803915,0.17536058,-0.35223547,-0.19199292,-0.08610593,-0.09356194,-0.11085211
-0.26700827,0.357605,0.49694404,0.09345471,-0.38241008,0.6517613,0.20826124,-0.31969714,-0.21685845,-0.065913804,-0.09356194,-0.085138306
-0.29495698,0.15507244,0.43559843,0.18065295,-0.36684513,0.4996076,0.24116191,-0.31156257,-0.21685845,-0.032260273,-0.09356194,-0.059424493
-0.27632454,-0.0024528895,0.32406098,0.21698554,-0.30458534,0.31484953,0.28228775,-0.31562984,-0.21685845,-0.01879886,-0.09356194,-0.042281955
-0.28564078,-0.20498544,0.24040785,0.28238422,-0.26826712,0.13009143,0.29051292,-0.31156257,-0.21685845,0.014854672,-0.09356194,-0.007996892
-0.31824765,-0.37376255,0.19579288,0.36231595,-0.26826712,0.01054208,0.25761223,-0.31562984,-0.21685845,0.03504679,-0.09356194,0.052001975
-0.32756385,-0.49753243,0.145601,0.41318157,-0.24751385,-0.09813914,0.25761223,-0.31156257,-0.23550758,0.014854672,-0.09356194,0.08628705
-0.3135895,-0.5537915,0.100986026,0.42044806,-0.22157227,-0.16334789,0.25761223,-0.31969714,-0.25415674,-0.01879886,-0.09356194,0.13771464
-0.3135895,-0.6213023,0.06752478,0.44224766,-0.20081899,-0.22855662,0.25761223,-0.33189902,-0.27280587,-0.03899098,-0.08096609,0.18914224
-0.3974357,-0.90259755,0.028486665,0.60211104,-0.2319489,-0.4024466,0.25761223,-0.33189902,-0.28523862,-0.059183095,-0.062072318,0.20628478
-0.37414512,-0.92510116,-0.004974579,0.5948445,-0.20081899,-0.44591907,0.29051292,-0.33189902,-0.31010416,-0.09283663,-0.043178547,0.20628478
-0.36482885,-0.98136026,-0.04401269,0.60211104,-0.18006572,-0.51112777,0.2987381,-0.33189902,-0.30388775,-0.09956733,-0.030582696,0.20628478
-0.43935883,-1.2176483,-0.07747393,0.74017495,-0.21119563,-0.6632815,0.2987381,-0.33189902,-0.27902228,-0.09956733,-0.011688923,0.20628478
-0.3974357,-1.1951445,-0.11651205,0.69657576,-0.16968909,-0.68501776,0.3398639,-0.34816816,-0.27902228,-0.09956733,0.00090692664,0.20628478
-0.37414512,-1.2289001,-0.15555017,0.6893093,-0.13337088,-0.73935837,0.3398639,-0.35223547,-0.26037312,-0.09956733,0.00090692664,0.21485604
-0.36017078,-1.2626555,-0.19458827,0.6893093,-0.107429296,-0.793699,0.3480891,-0.35223547,-0.24794035,-0.09956733,0.00090692664,0.24056984
-0.35085452,-1.2626555,-0.20574203,0.6820428,-0.09705266,-0.8045671,0.38098976,-0.37257195,-0.24794035,-0.09956733,0.00090692664,0.2577124
-0.37414512,-1.2401518,-0.16670392,0.69657576,-0.13337088,-0.76109457,0.39744008,-0.3766392,-0.26037312,-0.079375215,0.00090692664,0.24056984
-0.36482885,-1.1388856,-0.1276658,0.6529767,-0.14374752,-0.6741497,0.43034074,-0.36443734,-0.23550758,-0.045721687,-0.005390998,0.24914111
-0.36017078,-1.048871,-0.09420456,0.6239106,-0.15412414,-0.59807277,0.44679108,-0.34410086,-0.19820932,-0.032260273,0.007204851,0.24056984
-0.35551265,-0.9588566,-0.049589563,0.587578,-0.17487742,-0.51112777,0.4714666,-0.31969714,-0.17956015,0.0013932593,0.051290326,0.26628366
-0.33688012,-0.88009393,-0.027282074,0.5512454,-0.17487742,-0.44591907,0.43034074,-0.303428,-0.14226188,0.021585379,0.089077875,0.3862814
-0.36017078,-0.76757586,0.05079416,0.5294459,-0.22157227,-0.3155016,0.38921493,-0.27088967,-0.12361273,0.048508205,0.13316335,0.47199404
-0.35085452,-0.6325542,0.10656289,0.47131371,-0.24232551,-0.19595224,0.36453944,-0.2586878,-0.08009807,0.11581528,0.1709509,0.5319929
-0.23440142,-0.45252523,0.056371033,0.32598332,-0.15412414,-0.16334789,0.3151884,-0.23021676,0.0007148818,0.20331445,0.25912184,0.6091343
-0.024785876,-0.036208317,0.011756043,0.028056035,-0.019227909,-0.00032604364,0.28228775,-0.20988032,0.14990802,0.29081362,0.39137825,0.78055966
0.15688093,0.31259775,-0.03285895,-0.21900563,0.10010337,0.119223304,0.019082393,-0.36443734,0.05044593,0.2638908,0.40397412,0.8319873
0.1102997,0.12131701,-0.07747393,-0.124540865,0.10010337,-0.011194166,-0.24412295,-0.4986579,-0.22929122,0.11581528,0.3221011,0.7377034
0.07303471,-0.21623725,-0.19458827,0.0135229975,0.13123327,-0.28289723,-0.18654679,-0.527129,-0.3287533,-0.07264451,0.25282392,0.6862757
0.0031628632,-0.41876978,-0.21131891,0.13705382,0.10010337,-0.4133147,-0.12897062,-0.54339814,-0.41578263,-0.1803358,0.1709509,0.5919918
-0.24837579,-0.6775614,-0.038435824,0.41318157,-0.11780593,-0.3589741,-0.013818276,-0.5230617,-0.4592973,-0.19379722,0.10167373,0.5405642
-0.39277765,-1.0713747,-0.060743313,0.6602432,-0.19044235,-0.57633656,-0.0055931094,-0.55153275,-0.48416284,-0.22072005,0.038694475,0.42913774
-0.4486751,-1.0151156,0.034063537,0.67477626,-0.26307878,-0.4567872,0.101334065,-0.5189944,-0.44064817,-0.22745077,0.013502777,0.3777101
-0.49059823,-1.1726409,0.0061791693,0.76197445,-0.27864376,-0.5546003,0.10955924,-0.53933084,-0.49659556,-0.22745077,-0.017986847,0.26628366
-0.48128197,-0.98136026,0.089832276,0.6893093,-0.30977362,-0.38071033,0.15891023,-0.44171587,-0.42199904,-0.16014369,-0.049476475,0.24914111
-0.5791025,-1.6677204,-0.13881956,0.98723656,-0.25789046,-0.93498456,0.82514876,0.038224388,-0.11739635,-0.1668744,-0.30139345,-0.18799351
-0.3834614,-3.828068,-1.4382312,1.539492,0.45809725,-3.2498949,1.6312152,1.3112862,0.77154607,0.2773522,-0.47143742,-0.9594075
2.0527372,-0.7788276,-2.8436031,-1.3453162,2.4659758,-3.1520817,0.48791692,2.1613498,2.3815887,2.6600223,2.2681599,1.9291096
5.8584237,3.631881,-5.2137747,-5.74156,5.682732,-3.3259716,-3.6657925,0.3717422,2.6240275,5.4801884,6.223256,6.3261695
5.318081,2.5067005,-5.118968,-4.956776,5.3403034,-3.7715647,-5.74676,-2.7966769,-1.0871518,2.1081042,3.8930242,5.143335
1.3726512,-0.75632405,-2.0182261,-0.82212675,1.7032933,-2.3261044,-3.78917,-3.7118173,-4.5807576,-3.3706906,-1.1012299,0.8491298
-0.085341476,-1.9152603,-0.84708244,0.6893093,0.34914258,-1.7500939,-1.4203218,-1.5561534,-2.349077,-2.1322405,-1.1327195,-0.47941658
-0.085341476,-1.3414181,-0.56266195,0.5003798,0.21424636,-1.1958196,-0.34282497,-0.16107282,-0.1671274,-0.32841134,-0.21952043,-0.18799351
-0.32290578,-1.4539362,-0.339587,0.72564185,-0.024416223,-1.0327977,-0.03849378,-0.12446722,-0.31010416,-0.51687115,-0.3895644,-0.29941997
-0.34153825,-1.4201807,-0.30054888,0.72564185,-0.050357807,-0.9784571,0.15891023,0.038224388,-0.086314455,-0.2812964,-0.24471213,-0.24799237
-0.4253845,-1.35267,-0.15555017,0.76924103,-0.16450077,-0.8045671,0.1671354,-0.002448515,-0.16091102,-0.42264125,-0.34547892,-0.27370617
-0.4626495,-1.408929,-0.14439642,0.8201066,-0.18525404,-0.81543523,0.3151884,0.062628135,-0.08009807,-0.33514208,-0.2950955,-0.2651349
-0.47662383,-1.3189144,-0.08305081,0.7983071,-0.22676057,-0.71762216,0.38921493,0.074829996,-0.073881686,-0.382257,-0.32028723,-0.2908487
-0.43935883,-1.2964109,-0.11651205,0.76197445,-0.18525404,-0.73935837,0.3727646,0.10330103,-0.049016166,-0.3687956,-0.3139893,-0.31656253
-0.43004256,-1.2063963,-0.08305081,0.73290837,-0.20081899,-0.65241337,0.4221156,0.12770477,0.0007148818,-0.33514208,-0.3139893,-0.29941997
-0.4253845,-1.1726409,-0.07189707,0.71110886,-0.20081899,-0.63067716,0.4221156,0.16837768,0.025580406,-0.30821922,-0.35177687,-0.31656253
-0.37880325,-1.0826265,-0.088627696,0.6457102,-0.16968909,-0.6089409,0.45501626,0.21718515,0.10017698,-0.23418146,-0.34547892,-0.29941997
-0.37880325,-1.0376192,-0.060743313,0.63844365,-0.18006572,-0.5546003,0.4714666,0.24972348,0.13125888,-0.22072005,-0.38326648,-0.31656253
-0.2902989,-0.98136026,-0.14439642,0.54397887,-0.09186434,-0.6089409,0.4961421,0.3229347,0.18098992,-0.15341298,-0.35807475,-0.30799124
-0.19713643,-0.98136026,-0.24478017,0.47858024,0.0015253596,-0.706754,0.5208176,0.38801137,0.2555865,-0.13322085,-0.33288306,-0.30799124
-0.19247831,-0.98136026,-0.25593388,0.47131371,0.011901994,-0.71762216,0.54549307,0.5018955,0.3550486,-0.065913804,-0.2950955,-0.30799124
-0.17384583,-0.98136026,-0.2782414,0.44951418,0.03265526,-0.73935837,0.5537182,0.5547702,0.38613048,0.0013932593,-0.26990384,-0.30799124
-0.15987144,-0.98136026,-0.29497203,0.44224766,0.04822021,-0.7502265,0.5948441,0.7133945,0.51667446,0.06196961,-0.24471213,-0.30799124
-0.15521333,-1.0038638,-0.3172795,0.44951418,0.06378516,-0.793699,0.62774473,0.9289609,0.72181505,0.18312234,-0.21952043,-0.27370617
-0.12726459,-1.048871,-0.3674714,0.44224766,0.10010337,-0.8589077,0.6606454,1.1567292,0.9456047,0.35812068,-0.15654118,-0.2651349
-0.010811507,-1.0376192,-0.5013163,0.3477829,0.2298113,-0.9784571,0.78402287,1.4536414,1.2564238,0.5667726,-0.055774394,-0.2651349
0.1522228,-1.0826265,-0.71323746,0.2315186,0.4165907,-1.2175558,0.8333739,1.713948,1.5299445,0.7552324,0.013502777,-0.23084983
0.28730837,-1.1051302,-0.88612056,0.13705382,0.5722402,-1.3914458,0.8991753,2.0027256,1.6977869,0.84946233,0.038694475,-0.2137073
0.46431702,-1.0826265,-1.0924649,-0.008276561,0.76939625,-1.587072,0.932076,2.218292,1.8780619,0.89657724,0.057588246,-0.23942111
0.62269324,-1.1838928,-1.3322705,-0.102741316,0.9717406,-1.8696432,0.84982425,2.3525124,1.927793,0.84946233,0.082779944,-0.2651349
0.7531207,-1.2289001,-1.5107306,-0.18993956,1.12739,-2.0652695,0.8004733,2.4094546,1.8842783,0.76869375,0.09537579,-0.2651349
0.86025757,-1.1276337,-1.5888069,-0.30620384,1.2207798,-2.0870056,0.7346719,2.2264266,1.8221146,0.7148481,0.09537579,-0.2651349
0.88354814,-1.0376192,-1.5664994,-0.34980297,1.2207798,-2.021797,0.6770958,1.8644377,1.5921085,0.60042614,0.09537579,-0.2651349
0.7205138,-0.936353,-1.3266935,-0.25533822,1.0184355,-1.7392257,0.6195196,1.4007666,1.2626401,0.4523506,0.09537579,-0.2651349
0.45965898,-0.81258315,-0.9530431,-0.095474795,0.70194817,-1.326237,0.4961421,0.9208263,0.8958736,0.32446715,0.09537579,-0.22227857
0.20812029,-0.6663096,-0.57939255,0.04985559,0.3854608,-0.88064396,0.35631424,0.4896936,0.59127104,0.15619951,0.09537579,-0.1365659
-0.015469629,-0.4412734,-0.20574203,0.15885338,0.089726746,-0.4133147,0.2658374,0.18464683,0.3426158,-0.012068154,0.082779944,-0.050853226
-0.17384583,-0.2724963,0.073101655,0.22425205,-0.12818256,-0.065534785,0.23293675,-0.022784967,0.11882611,-0.09956733,0.051290326,0.017716909
-0.29495698,-0.19373363,0.2571385,0.28965074,-0.28383204,0.15182768,0.20826124,-0.18954387,-0.0365834,-0.16014369,0.013502777,-0.007996892
-0.31824765,-0.09246736,0.3352147,0.2751177,-0.33052692,0.27137703,0.17536058,-0.27088967,-0.11117997,-0.24091217,-0.005390998,-0.007996892
-0.33688012,0.053806156,0.43002155,0.24605161,-0.3875984,0.43439886,0.15068507,-0.31562984,-0.17334378,-0.24091217,-0.043178547,-0.007996892
-0.3974357,0.15507244,0.54713595,0.26058465,-0.47579977,0.6082888,0.1177844,-0.31156257,-0.22929122,-0.23418146,-0.062072318,-0.007996892
-0.40675196,0.18882786,0.58059716,0.25331816,-0.49655303,0.6626294,0.0931089,-0.31156257,-0.22307481,-0.23418146,-0.030582696,-0.007996892
-0.37414512,0.2450869,0.5694434,0.21698554,-0.47579977,0.67349756,0.0931089,-0.31156257,-0.20442568,-0.20052792,-0.030582696,-0.042281955
-0.34153825,0.30134594,0.55828965,0.17338642,-0.4550465,0.68436563,0.07665857,-0.31156257,-0.19199292,-0.20052792,-0.030582696,-0.050853226
-0.35085452,0.29009414,0.56386656,0.18065295,-0.46023482,0.68436563,0.043757897,-0.31156257,-0.1671274,-0.20725863,-0.030582696,-0.050853226
-0.37414512,0.23383509,0.56386656,0.21698554,-0.47061145,0.6626294,0.051983062,-0.31156257,-0.15469465,-0.24091217,-0.030582696,-0.050853226
-0.38811952,0.20007966,0.56386656,0.2387851,-0.48098812,0.6408932,0.019082393,-0.31156257,-0.1671274,-0.27456573,-0.043178547,-0.050853226
-0.40209383,0.16632424,0.56386656,0.26058465,-0.4861764,0.6300251,0.010857226,-0.31562984,-0.19199292,-0.2947578,-0.068370245,-0.042281955
-0.4253845,0.1100652,0.56386656,0.29691726,-0.50174135,0.5974207,0.010857226,-0.33189902,-0.20442568,-0.32841134,-0.062072318,-0.007996892
-0.4347007,0.08756158,0.56386656,0.3114503,-0.50692964,0.5865526,0.010857226,-0.33596632,-0.22307481,-0.3486035,-0.08726402,-0.007996892
-0.4114101,0.14382061,0.56386656,0.2751177,-0.49136472,0.61915696,0.019082393,-0.39290836,-0.28523862,-0.382257,-0.09356194,-0.007996892
-0.369487,0.2450869,0.56386656,0.209719,-0.47061145,0.6626294,-0.0055931094,-0.43764856,-0.34740245,-0.40244913,-0.09356194,-0.007996892
-0.34153825,0.31259775,0.56386656,0.1661199,-0.4550465,0.6952338,-0.030268608,-0.429514,-0.35983518,-0.40244913,-0.118753634,-0.007996892
-0.369487,0.31259775,0.59732777,0.18791947,-0.4861764,0.72783816,-0.054944113,-0.43764856,-0.35983518,-0.39571843,-0.1376474,-0.007996892
-0.40209383,0.31259775,0.6363659,0.209719,-0.5224947,0.7713106,-0.07139444,-0.4945906,-0.34118605,-0.40917984,-0.16283911,-0.007996892
-0.4114101,0.31259775,0.64751965,0.21698554,-0.53287125,0.7821788,-0.10429512,-0.53526354,-0.34118605,-0.3889877,-0.1880308,-0.007996892
-0.4114101,0.31259775,0.64751965,0.21698554,-0.53287125,0.7821788,-0.11252028,-0.55153275,-0.41578263,-0.46302548,-0.17543496,-0.007996892
-0.40209383,0.33510137,0.64751965,0.2024525,-0.5224947,0.79304695,-0.08784478,-0.57593644,-0.47173005,-0.543794,-0.15654118,-0.007996892
-0.37880325,0.39136046,0.64751965,0.1661199,-0.512118,0.81478316,-0.06316928,-0.57593644,-0.4655137,-0.5101404,-0.1376474,-0.007996892
-0.35551265,0.44761947,0.64751965,0.1297873,-0.50174135,0.8473875,-0.03849378,-0.57593644,-0.4655137,-0.496679,-0.118753634,-0.007996892
-0.34619638,0.4701231,0.64751965,0.11525425,-0.49655303,0.8473875,-0.013818276,-0.56780183,-0.44686452,-0.4697562,-0.09985986,-0.01656816
-0.36017078,0.44761947,0.6530965,0.13705382,-0.50692964,0.8473875,0.010857226,-0.54339814,-0.42199904,-0.44283336,-0.08726402,-0.007996892
-0.37414512,0.40261224,0.6419428,0.15885338,-0.512118,0.8256513,0.019082393,-0.527129,-0.40956625,-0.41591054,-0.16913703,-0.007996892
-0.36017078,0.49262673,0.675404,0.122520775,-0.5173063,0.89086,0.0684334,-0.5067925,-0.38470072,-0.35533416,-0.16913703,-0.007996892
-0.35551265,0.7401665,0.7980953,0.035322558,-0.5691895,1.1299587,0.0931089,-0.49052334,-0.37848434,-0.30821922,-0.068370245,0.026288174
-0.3135895,1.0214617,0.88174844,-0.08820827,-0.5847544,1.3473212,0.13423473,-0.4701869,-0.36605158,-0.25437358,-0.030582696,0.077715784
-0.28564078,1.0552171,0.85944086,-0.11727436,-0.55881286,1.3473212,0.07665857,-0.4986579,-0.291455,-0.20725863,0.032396547,0.12914337
-0.20179456,1.3477641,0.90963274,-0.27713776,-0.5380596,1.5320791,-0.07139444,-0.5230617,-0.22307481,-0.22745077,0.082779944,0.17199972
-0.04341837,1.9553618,1.0211703,-0.59686464,-0.50174135,1.9450679,-0.19477196,-0.5637346,-0.18577653,-0.24764289,0.17724882,0.47199404
-0.038760245,1.8428438,0.9598246,-0.5605321,-0.47061145,1.8146504,-0.5237787,-0.710157,-0.34118605,-0.267835,0.19614258,0.5834206
-0.09465773,1.6515629,0.9319402,-0.45880076,-0.4861764,1.695101,-0.688282,-0.74269533,-0.5338939,-0.2812964,0.10797165,0.44628027
-0.12726459,1.4715341,0.88174844,-0.3716025,-0.4861764,1.5646836,-0.540229,-0.7386281,-0.60227406,-0.30148855,0.0198007,0.3348538
-0.20645268,1.2352461,0.85944086,-0.24080516,-0.5173063,1.434266,-0.4086263,-0.7304935,-0.60227406,-0.3687956,-0.049476475,0.23199858
-0.34619638,0.84143275,0.83155656,-0.001010042,-0.5847544,1.2169037,-0.3592753,-0.7142243,-0.6395723,-0.44283336,-0.106157795,0.13771464
-0.4253845,0.50387853,0.7646341,0.1661199,-0.5951311,0.98867315,-0.32637465,-0.7304935,-0.6520051,-0.44956407,-0.16283911,0.026288174
-0.4114101,0.5713894,0.77021086,0.13705382,-0.58994275,1.0321456,-0.23589778,-0.67355144,-0.6147068,-0.46302548,-0.21322252,-0.025139429
-0.40209383,0.31259775,0.6363659,0.209719,-0.5173063,0.7713106,-0.2852488,-0.66541684,-0.5898413,-0.42264125,-0.27620175,-0.09370956
-0.4626495,0.357605,0.73117274,0.2387851,-0.6003194,0.89086,0.08488373,-0.4661196,-0.37848434,-0.3889877,-0.2950955,-0.11085211
-0.60239315,-1.9490157,-0.23920327,1.1035008,-0.22157227,-1.1740832,1.2199569,0.51409733,0.23693734,-0.16014369,-0.6981627,-1.0708339
0.6459839,-1.521447,-1.5274612,-0.008276561,1.0703186,-2.2174232,1.3433343,1.9457835,1.7661672,1.5158021,0.63699734,-0.033710696
4.470303,3.631881,-3.5518663,-4.658849,4.1366134,-1.7066213,-2.07011,1.5024488,3.0156598,5.0696154,5.2092905,4.8947678
6.3428683,4.5995364,-5.319735,-6.424613,6.0044074,-2.9564555,-5.5822563,-1.3527888,0.98911935,4.840771,5.9272537,6.4890237
2.8958573,2.06788,-2.4364915,-2.9221509,2.7461448,-1.3697096,-4.817316,-3.6589422,-3.6793828,-1.4659007,0.580316,2.3233876
-0.10397397,-0.407518,-0.07747393,0.21698554,-0.019227909,-0.2720291,-2.3250904,-2.7641385,-4.1207457,-3.4447284,-1.8569807,-0.71084076
-0.22508518,-0.6550578,-0.049589563,0.391382,-0.10224098,-0.3589741,-0.85278535,-0.76303184,-1.0871518,-0.7860994,-0.5722042,-0.5222729
-0.36017078,-0.23874088,0.31290722,0.3550494,-0.34609187,0.18443203,-0.3345998,-0.32783175,-0.44686452,-0.3755263,-0.37696853,-0.44513154
-0.4114101,-0.46377704,0.26271537,0.47131371,-0.34609187,0.032278325,-0.08784478,-0.23428406,-0.47173005,-0.2812964,-0.45254362,-0.5137017
-0.4114101,-0.23874088,0.36867595,0.39864853,-0.39797503,0.23877266,-0.030268608,-0.16514012,-0.36605158,-0.24091217,-0.4147561,-0.44513154
-0.40209383,-0.2949999,0.32963783,0.41318157,-0.37722176,0.17356393,-0.022043444,-0.16514012,-0.39091712,-0.30148855,-0.48403326,-0.5051304
-0.369487,-0.2612445,0.31290722,0.36958244,-0.34609187,0.17356393,0.035532728,-0.095996186,-0.291455,-0.23418146,-0.45254362,-0.46227404
-0.43935883,-0.41876978,0.3184841,0.47858024,-0.39278668,0.097487055,0.051983062,-0.0919289,-0.32253692,-0.30148855,-0.50922495,-0.4965591
-0.40209383,-0.4300216,0.26829222,0.44951418,-0.35128018,0.05401457,0.10955924,-0.026852256,-0.24794035,-0.23418146,-0.4903312,-0.46227404
-0.43004256,-0.4412734,0.2961766,0.47858024,-0.37203342,0.07575081,0.13423473,-0.006515805,-0.25415674,-0.24764289,-0.5155229,-0.5394155
-0.40675196,-0.49753243,0.23483099,0.47858024,-0.3357152,-0.011194166,0.17536058,0.054493546,-0.21064207,-0.19379722,-0.5281187,-0.57370055
-0.369487,-0.4300216,0.22925411,0.42771462,-0.30977362,0.021410203,0.20826124,0.10736832,-0.17334378,-0.19379722,-0.5407146,-0.55655795
-0.33688012,-0.4300216,0.190216,0.39864853,-0.27864376,-0.011194166,0.24938707,0.1602431,-0.10496359,-0.15341298,-0.5281187,-0.5651293
-0.31824765,-0.407518,0.17348537,0.376849,-0.25789046,-0.02206229,0.30696324,0.24972348,-0.042799786,-0.13322085,-0.4903312,-0.5651293
-0.29961511,-0.4300216,0.145601,0.36958244,-0.23713721,-0.054666657,0.36453944,0.3229347,0.07531145,-0.09283663,-0.45254362,-0.5651293
-0.26235014,-0.41876978,0.11213976,0.34051636,-0.20081899,-0.08727102,0.41389042,0.3961459,0.19963908,-0.0053374474,-0.4147561,-0.5308442
-0.2111108,-0.41876978,0.045217287,0.30418378,-0.1385592,-0.16334789,0.43034074,0.5425684,0.31153393,0.07543103,-0.3895644,-0.4965591
-0.17384583,-0.47502884,-0.027282074,0.28965074,-0.081487715,-0.25029287,0.41389042,0.733731,0.5477564,0.23696798,-0.33288306,-0.4708453
-0.12726459,-0.47502884,-0.08305081,0.26058465,-0.029604541,-0.30463347,0.45501626,0.9533647,0.7342478,0.3985049,-0.2384142,-0.44513154
0.007820986,-0.48628065,-0.25035703,0.15158686,0.12604496,-0.47852343,0.6853209,1.2177385,0.97668666,0.580234,-0.15654118,-0.40227517
0.10098345,-0.54253966,-0.38977888,0.09345471,0.23499963,-0.63067716,0.81692356,1.5065162,1.293722,0.8023473,-0.12505156,-0.3937039
0.25935966,-0.52003604,-0.5738157,-0.03007612,0.4114024,-0.8045671,0.7428971,1.7993611,1.5299445,0.9773457,-0.1124557,-0.3937039
0.48294955,-0.5650433,-0.85823625,-0.19720608,0.6708182,-1.0980064,0.78402287,2.023062,1.7288687,1.064845,-0.09356194,-0.3937039
0.63666767,-0.6663096,-1.0924649,-0.27713776,0.86278594,-1.3805776,0.82514876,2.1938882,1.8594128,1.0715755,-0.07466817,-0.3937039
0.78106946,-0.8238349,-1.3434242,-0.34253645,1.059942,-1.7066213,0.7511223,2.2630322,1.797249,1.0109993,-0.062072318,-0.3937039
0.8509413,-0.9588566,-1.4939998,-0.34980297,1.1688966,-1.9131157,0.6853209,2.1654172,1.716436,0.9773457,-0.043178547,-0.3937039
0.8928644,-0.90259755,-1.5163075,-0.4006686,1.2052149,-1.9131157,0.62774473,1.9539181,1.585892,0.89657724,-0.024284773,-0.35941884
0.8043601,-0.81258315,-1.3713086,-0.364336,1.0858836,-1.7283576,0.5537182,1.5675255,1.2626401,0.6811946,-0.030582696,-0.30799124
0.5481633,-0.6888132,-0.99765813,-0.20447259,0.76939625,-1.3045008,0.43856594,1.111989,0.96425384,0.5196576,-0.030582696,-0.2651349
0.34320587,-0.407518,-0.6128538,-0.13907392,0.4788505,-0.7828309,0.32341358,0.6971253,0.59748745,0.3917742,-0.030582696,-0.2137073
0.15688093,-0.09246736,-0.23362641,-0.08820827,0.1986814,-0.2720291,0.24938707,0.31480014,0.23693734,0.2504294,-0.036880624,-0.16227971
-0.020127753,0.16632424,0.10656289,-0.03734264,-0.060734443,0.18443203,0.20826124,0.038224388,0.025580406,0.11581528,-0.068370245,-0.14513716
-0.17850395,0.27884233,0.35194534,0.04258908,-0.26307878,0.47787136,0.1671354,-0.14887096,-0.10496359,0.014854672,-0.08726402,-0.17942224
-0.22974329,0.3688568,0.45790595,0.05712211,-0.34090355,0.61915696,0.1177844,-0.24648592,-0.19820932,-0.025529567,-0.106157795,-0.17942224
-0.23905954,0.4701231,0.5192515,0.035322558,-0.37203342,0.72783816,0.0684334,-0.28715882,-0.25415674,-0.07264451,-0.1376474,-0.17942224
-0.31824765,0.43636766,0.59732777,0.107987754,-0.4550465,0.79304695,0.0684334,-0.29529342,-0.24794035,-0.11302875,-0.15024325,-0.17942224
-0.33222198,0.38010862,0.5917509,0.1297873,-0.46023482,0.7604426,0.0931089,-0.28309155,-0.24794035,-0.16014369,-0.1880308,-0.17942224
-0.35551265,0.357605,0.59732777,0.15885338,-0.47579977,0.7495744,0.0931089,-0.27088967,-0.24794035,-0.20052792,-0.20692457,-0.2137073
-0.39277765,0.30134594,0.6196353,0.209719,-0.512118,0.7495744,0.0931089,-0.27088967,-0.24172397,-0.20052792,-0.1880308,-0.22227857
-0.40675196,0.26759052,0.6196353,0.2315186,-0.512118,0.72783816,0.0931089,-0.27088967,-0.26037312,-0.20052792,-0.1880308,-0.22227857
-0.41606823,0.2225833,0.6084815,0.24605161,-0.5173063,0.70610195,0.0931089,-0.27088967,-0.27902228,-0.20052792,-0.1880308,-0.22227857
-0.3974357,0.20007966,0.57502025,0.24605161,-0.49136472,0.6517613,0.051983062,-0.27088967,-0.28523862,-0.20052792,-0.1880308,-0.22227857
-0.39277765,0.16632424,0.54713595,0.25331816,-0.47579977,0.6082888,0.051983062,-0.27088967,-0.27280587,-0.19379722,-0.1880308,-0.2137073
-0.3834614,0.1325688,0.5304053,0.25331816,-0.46023482,0.5756844,0.043757897,-0.27088967,-0.28523862,-0.22072005,-0.20692457,-0.17942224
-0.37880325,0.08756158,0.5025209,0.26785117,-0.4446699,0.53221196,0.010857226,-0.27088967,-0.291455,-0.23418146,-0.22581834,-0.17942224
-0.36482885,0.08756158,0.48021343,0.25331816,-0.4291049,0.51047575,0.010857226,-0.2993607,-0.3287533,-0.24764289,-0.21322252,-0.16227971
-0.34153825,0.14382061,0.48021343,0.21698554,-0.41353998,0.53221196,-0.0055931094,-0.34410086,-0.35983518,-0.267835,-0.21952043,-0.12799463
-0.34153825,0.14382061,0.48021343,0.21698554,-0.41353998,0.53221196,-0.046718944,-0.3847738,-0.39091712,-0.27456573,-0.21322252,-0.1365659
-0.34619638,0.14382061,0.48021343,0.21698554,-0.4187283,0.53221196,-0.07139444,-0.4132448,-0.42199904,-0.2947578,-0.22581834,-0.10228084
-0.33688012,0.14382061,0.47463655,0.209719,-0.4083517,0.53221196,-0.09606995,-0.4254467,-0.4592973,-0.31494993,-0.25101003,-0.09370956
-0.35551265,0.14382061,0.49694404,0.2315186,-0.4291049,0.5539482,-0.13719578,-0.44171587,-0.54632664,-0.33514208,-0.25101003,-0.09370956
-0.3834614,0.14382061,0.5304053,0.25331816,-0.46023482,0.5865526,-0.15364611,-0.4701869,-0.56497574,-0.3486035,-0.25101003,-0.09370956
-0.3974357,0.14382061,0.54713595,0.26058465,-0.47579977,0.5974207,-0.15364611,-0.4945906,-0.5587594,-0.3889877,-0.25101003,-0.09370956
-0.4114101,0.14382061,0.56386656,0.2751177,-0.49136472,0.61915696,-0.15364611,-0.4945906,-0.5898413,-0.40244913,-0.25101003,-0.085138306
-0.42072636,0.15507244,0.57502025,0.2751177,-0.50174135,0.6300251,-0.15364611,-0.4945906,-0.5898413,-0.42264125,-0.22581834,-0.050853226
-0.41606823,0.20007966,0.59732777,0.26058465,-0.512118,0.67349756,-0.15364611,-0.4945906,-0.5836249,-0.43610263,-0.21952043,-0.050853226
-0.3834614,0.25633872,0.5917509,0.209719,-0.4861764,0.6952338,-0.16187128,-0.5027252,-0.55254304,-0.40244913,-0.21952043,-0.050853226
-0.37414512,0.30134594,0.59732777,0.19518597,-0.49136472,0.72783816,-0.12897062,-0.5149271,-0.5152447,-0.3687956,-0.1880308,-0.050853226
-0.33688012,0.357605,0.5861741,0.14432034,-0.46023482,0.7387063,-0.07961961,-0.527129,-0.49659556,-0.33514208,-0.1880308,-0.059424493
-0.34153825,0.39136046,0.6029047,0.13705382,-0.47061145,0.7713106,-0.013818276,-0.53526354,-0.4655137,-0.31494993,-0.18173288,-0.01656816
-0.34153825,0.54888576,0.68098086,0.0861882,-0.50692964,0.92346436,0.02730756,-0.55560005,-0.43443176,-0.27456573,-0.13134949,0.043430712
-0.2902989,0.7401665,0.7200191,-0.015543082,-0.49655303,1.0538819,0.0931089,-0.55153275,-0.41578263,-0.2812964,-0.068370245,0.103429586
-0.29961511,0.7176629,0.7144422,-0.001010042,-0.50174135,1.0430137,0.12600957,-0.53526354,-0.3971335,-0.30821922,-0.024284773,0.15485719
-0.21576893,1.0214617,0.7646341,-0.16087347,-0.47579977,1.2277719,0.0026320582,-0.48238873,-0.40956625,-0.2947578,0.057588246,0.22342731
-0.15521333,1.359016,0.85944086,-0.31347036,-0.49136472,1.4886067,-0.19477196,-0.53119624,-0.39091712,-0.32841134,0.1457592,0.3862814
-0.12726459,1.178987,0.73674965,-0.28440428,-0.41353998,1.2929806,-0.5566793,-0.6979552,-0.43443176,-0.33514208,0.12056749,0.36913887
-0.06670899,1.178987,0.66425025,-0.33526993,-0.34609187,1.2169037,-0.60603034,-0.6857533,-0.47794643,-0.33514208,0.089077875,0.29199746
-0.10397397,0.9989581,0.6196353,-0.24080516,-0.35128018,1.0864862,-0.5813548,-0.66948414,-0.52146107,-0.3687956,0.0701841,0.24914111
-0.23905954,0.593893,0.5861741,-0.008276561,-0.4083517,0.8582556,-0.44975215,-0.6491477,-0.56497574,-0.3889877,-0.005390998,0.16342846
-0.31824765,0.34635317,0.5527128,0.1297873,-0.43429324,0.6952338,-0.19477196,-0.63287854,-0.6457887,-0.47648692,-0.15024325,0.060573243
-0.28564078,0.27884233,0.48021343,0.1297873,-0.3875984,0.5974207,-0.20299713,-0.62067664,-0.6582215,-0.496679,-0.24471213,-0.085138306
-0.30427325,0.27884233,0.5025209,0.14432034,-0.40316334,0.61915696,-0.17009646,-0.58000374,-0.6457887,-0.543794,-0.25101003,-0.20513605
-0.28564078,0.08756158,0.3854066,0.19518597,-0.34090355,0.42353076,-0.25234812,-0.62067664,-0.683087,-0.47648692,-0.25101003,-0.17942224
-0.40209383,0.12131701,0.54713595,0.2751177,-0.47579977,0.5865526,0.10955924,-0.429514,-0.47794643,-0.43610263,-0.2887976,-0.20513605
-0.5744444,-2.1402965,-0.37304828,1.1398335,-0.14374752,-1.402314,1.1706059,0.49782816,0.056662306,-0.39571843,-0.7233544,-1.2251167
0.6040608,-1.9152603,-1.6724598,0.15158686,1.1118251,-2.5543349,1.3104337,1.9132452,1.5921085,1.2263818,0.47954917,-0.25656366
4.2653456,3.2943268,-3.4682133,-4.3899875,3.9861524,-1.7826982,-1.8644809,1.4129685,3.003227,4.914809,5.1337156,4.7661986
6.3615007,4.824573,-5.2249284,-6.519078,5.973278,-2.7608294,-5.5822563,-1.4666729,1.293722,5.278267,6.4751735,6.8061604
3.1893194,1.7753329,-2.9384103,-3.0602148,3.140457,-2.0000608,-5.1051965,-3.7443554,-3.4120784,-1.068789,1.0715541,2.751951
0.08700909,-1.0713747,-0.63516134,0.28238422,0.34395427,-1.1414789,-2.4813685,-2.784475,-4.0088506,-3.5120356,-1.762512,-0.590843
-0.11329022,-0.936353,-0.32843325,0.391382,0.094915055,-0.77196276,-0.7705337,-0.63694584,-0.80119824,-0.7120616,-0.502927,-0.47941658
-0.18782018,-0.36251074,0.045217287,0.26785117,-0.12299425,-0.13074352,-0.18654679,-0.22614948,-0.24172397,-0.47648692,-0.42735195,-0.2137073
-0.24837579,-0.50878423,0.045217287,0.3550494,-0.15931246,-0.19595224,-0.013818276,-0.18140928,-0.291455,-0.48321757,-0.45884156,-0.40227517
-0.32756385,-0.4300216,0.17906225,0.391382,-0.26307878,-0.032930408,0.08488373,-0.095996186,-0.17334378,-0.3687956,-0.3895644,-0.45370278
-0.43935883,-0.6550578,0.20694661,0.5512454,-0.3357152,-0.10900726,0.1177844,-0.11226535,-0.24172397,-0.42937198,-0.43364984,-0.5222729
-0.40675196,-0.61005056,0.18463914,0.50764626,-0.30977362,-0.10900726,0.18358573,-0.030919546,-0.11739635,-0.28802714,-0.38326648,-0.5308442
-0.43004256,-0.70006496,0.1679085,0.558512,-0.31496197,-0.17421599,0.23293675,-0.03498684,-0.17334378,-0.35533416,-0.45884156,-0.58227175
-0.4114101,-0.7338205,0.12887038,0.558512,-0.2890204,-0.22855662,0.29051292,0.034157097,-0.08009807,-0.2611043,-0.42105404,-0.6079856
-0.4253845,-0.7788276,0.12329351,0.587578,-0.29420868,-0.261161,0.33163875,0.062628135,-0.098747216,-0.30148855,-0.45254362,-0.6079856
-0.40209383,-0.81258315,0.07867853,0.57304496,-0.25789046,-0.3155016,0.3398639,0.09109916,-0.055232543,-0.24091217,-0.43364984,-0.6079856
-0.369487,-0.74507225,0.073101655,0.5294459,-0.23713721,-0.29376534,0.3480891,0.17651226,0.006931263,-0.24091217,-0.44624573,-0.6079856
-0.35551265,-0.7338205,0.056371033,0.5149128,-0.22157227,-0.29376534,0.33163875,0.25379077,0.08774421,-0.22745077,-0.42735195,-0.6079856
-0.33688012,-0.6888132,0.06194791,0.48584673,-0.21119563,-0.2720291,0.3480891,0.33920386,0.19963908,-0.1668744,-0.3895644,-0.57370055
-0.29961511,-0.6663096,0.028486665,0.44224766,-0.18006572,-0.29376534,0.45501626,0.42461693,0.31153393,-0.12649015,-0.37067062,-0.5222729
-0.29961511,-0.6438059,0.03964041,0.4349811,-0.18525404,-0.261161,0.44679108,0.5262992,0.47315982,-0.045721687,-0.33288306,-0.47941658
-0.25769204,-0.61005056,0.011756043,0.39864853,-0.14893582,-0.28289723,0.5783937,0.6971253,0.5601892,0.0417775,-0.3139893,-0.427989
-0.18782018,-0.58754694,-0.06632019,0.33324987,-0.071111076,-0.33723783,0.7428971,0.85574967,0.69073313,0.16293022,-0.25730798,-0.38513264
-0.12260647,-0.58754694,-0.14439642,0.28965074,0.0015253596,-0.42418283,0.7511223,1.0753834,0.9269556,0.3715821,-0.17543496,-0.3422763
0.02645348,-0.58754694,-0.3228564,0.17338642,0.1675515,-0.59807277,0.7922481,1.3560264,1.1756108,0.5735033,-0.1124557,-0.30799124
0.15688093,-0.58754694,-0.473432,0.071655154,0.30763605,-0.73935837,0.8333739,1.6570059,1.4739971,0.7754245,-0.07466817,-0.30799124
0.2919665,-0.59879875,-0.64631504,-0.03007612,0.46328557,-0.91324836,0.8991753,1.9173124,1.716436,0.97061497,-0.043178547,-0.30799124
0.45965898,-0.70006496,-0.89169747,-0.1318074,0.6708182,-1.2066876,0.94030106,2.1572826,1.9091439,1.0311913,-0.024284773,-0.30799124
0.613377,-0.81258315,-1.13708,-0.21173911,0.87316257,-1.5001271,0.94852626,2.3525124,2.0210385,0.99753785,0.013502777,-0.30799124
0.78572756,-0.91384935,-1.399193,-0.31347036,1.0910718,-1.8044344,0.87449974,2.4216564,1.9775239,0.96388435,0.032396547,-0.28227744
0.8416251,-1.048871,-1.5274612,-0.31347036,1.1792732,-1.9891926,0.8004733,2.372849,1.8904946,0.9436922,0.00090692664,-0.23084983
0.7903857,-1.0263674,-1.4549618,-0.28440428,1.1170135,-1.9131157,0.7346719,2.108475,1.6853541,0.8158087,0.00090692664,-0.18799351
0.8043601,-0.8463385,-1.3824624,-0.34980297,1.0910718,-1.7500939,0.6524203,1.6610732,1.3931842,0.6071569,0.00090692664,-0.15370843
0.65995824,-0.70006496,-1.13708,-0.28440428,0.8991041,-1.4457865,0.5866189,1.1933348,1.0512832,0.4523506,0.00090692664,-0.11942336
0.35252213,-0.50878423,-0.67419946,-0.11000783,0.5151687,-0.9023802,0.5208176,0.75813466,0.62235296,0.28408292,0.007204851,-0.07656703
0.14756466,-0.2724963,-0.3172795,-0.0228096,0.2298113,-0.43505093,0.45501626,0.33106926,0.33639947,0.11581528,-0.011688923,-0.042281955
-0.020127753,-0.12622279,-0.038435824,0.05712211,0.0067136763,-0.09813914,0.38098976,0.07076271,0.13125888,0.014854672,-0.030582696,0.009145642
-0.17850395,0.042554345,0.23483099,0.122520775,-0.2060073,0.24964078,0.3151884,-0.0919289,-0.073881686,-0.079375215,-0.030582696,0.03485944
-0.29961511,0.1325688,0.4244447,0.19518597,-0.36684513,0.47787136,0.24116191,-0.25462052,-0.15469465,-0.14668228,-0.030582696,0.077715784
-0.30427325,0.20007966,0.46348283,0.17338642,-0.38241008,0.5539482,0.20826124,-0.32376444,-0.19820932,-0.20725863,-0.030582696,0.120572105
-0.26700827,0.32384956,0.48021343,0.10072123,-0.37722176,0.6300251,0.21648641,-0.31969714,-0.24794035,-0.22072005,-0.030582696,0.09485832
-0.29495698,0.31259775,0.5080978,0.1297873,-0.40316334,0.6408932,0.21648641,-0.29529342,-0.2976714,-0.19379722,-0.062072318,0.06914451
-0.29961511,0.31259775,0.5136747,0.1297873,-0.4083517,0.6517613,0.21648641,-0.27495694,-0.291455,-0.20052792,-0.062072318,0.043430712
-0.32290578,0.31259775,0.54155904,0.14432034,-0.43429324,0.67349756,0.21648641,-0.2627551,-0.27902228,-0.1803358,-0.068370245,0.017716909
-0.30427325,0.31259775,0.5192515,0.13705382,-0.41353998,0.6517613,0.21648641,-0.23835135,-0.27902228,-0.16014369,-0.09356194,-0.007996892
-0.30427325,0.29009414,0.5080978,0.14432034,-0.40316334,0.6300251,0.21648641,-0.23428406,-0.25415674,-0.1736051,-0.09356194,-0.007996892
-0.32290578,0.2450869,0.5080978,0.17338642,-0.41353998,0.61915696,0.21648641,-0.29122612,-0.24172397,-0.19379722,-0.09356194,-0.007996892
-0.3135895,0.26759052,0.5080978,0.15885338,-0.41353998,0.61915696,0.21648641,-0.31969714,-0.26037312,-0.22072005,-0.09356194,-0.007996892
-0.33688012,0.21133149,0.5080978,0.19518597,-0.4239166,0.5974207,0.21648641,-0.32783175,-0.2976714,-0.24091217,-0.09356194,-0.007996892
-0.34619638,0.20007966,0.5136747,0.2024525,-0.43429324,0.5865526,0.21648641,-0.35223547,-0.32253692,-0.2611043,-0.09356194,-0.007996892
-0.36017078,0.20007966,0.5304053,0.21698554,-0.4498582,0.61915696,0.1918109,-0.39290836,-0.36605158,-0.28802714,-0.09356194,-0.007996892
-0.39277765,0.14382061,0.54155904,0.25331816,-0.47061145,0.5865526,0.15068507,-0.4254467,-0.43443176,-0.30148855,-0.09356194,-0.042281955
-0.3834614,0.14382061,0.5304053,0.24605161,-0.46023482,0.5865526,0.12600957,-0.44578314,-0.47173005,-0.30148855,-0.1376474,-0.050853226
-0.40675196,0.1325688,0.5527128,0.2751177,-0.4861764,0.5974207,0.101334065,-0.4742542,-0.50281197,-0.32841134,-0.16283911,-0.050853226
-0.45333323,0.08756158,0.58059716,0.32598332,-0.52768296,0.6082888,0.06020823,-0.5149271,-0.49659556,-0.3486035,-0.17543496,-0.085138306
-0.4347007,0.08756158,0.5694434,0.3114503,-0.512118,0.5974207,0.043757897,-0.53933084,-0.4903792,-0.39571843,-0.19432873,-0.09370956
-0.44401696,0.06505796,0.56386656,0.32598332,-0.50692964,0.5756844,0.0026320582,-0.53119624,-0.5587594,-0.43610263,-0.21322252,-0.085138306
-0.4626495,0.020050727,0.56386656,0.3550494,-0.5224947,0.56481636,-0.022043444,-0.55560005,-0.59605765,-0.43610263,-0.21952043,-0.050853226
-0.47662383,-0.013704699,0.56386656,0.376849,-0.5224947,0.5430801,-0.046718944,-0.58813834,-0.6084904,-0.43610263,-0.19432873,-0.050853226
-0.49525636,-0.05871194,0.56386656,0.40591505,-0.53287125,0.5213438,-0.08784478,-0.57593644,-0.62713957,-0.43610263,-0.17543496,-0.050853226
-0.51388884,-0.08121555,0.58059716,0.42771462,-0.55881286,0.53221196,-0.11252028,-0.6003402,-0.6457887,-0.43610263,-0.16283911,-0.050853226
-0.5092307,-0.036208317,0.5917509,0.40591505,-0.55881286,0.5539482,-0.07961961,-0.6003402,-0.6520051,-0.42264125,-0.1376474,-0.059424493
-0.4859401,0.042554345,0.6029047,0.36231595,-0.5484362,0.5974207,-0.03849378,-0.58000374,-0.60227406,-0.3755263,-0.13134949,-0.01656816
-0.4999144,0.042554345,0.6196353,0.376849,-0.5691895,0.61915696,-0.013818276,-0.57186913,-0.55254304,-0.34187275,-0.106157795,0.043430712
-0.43935883,0.18882786,0.6196353,0.28238422,-0.53287125,0.68436563,0.035532728,-0.55153275,-0.49659556,-0.30821922,-0.049476475,0.103429586
-0.35085452,0.56013757,0.6977115,0.09345471,-0.5224947,0.9452006,0.043757897,-0.53933084,-0.44686452,-0.2611043,0.007204851,0.15485719
-0.30427325,0.87518823,0.7980953,-0.044609163,-0.5432479,1.1951675,0.07665857,-0.5230617,-0.38470072,-0.24091217,0.051290326,0.22342731
-0.28564078,0.92019546,0.79251844,-0.07367524,-0.52768296,1.2169037,0.0931089,-0.49052334,-0.3287533,-0.14668228,0.1457592,0.32628253
-0.21576893,1.2127424,0.85944086,-0.22627214,-0.5173063,1.4233979,0.019082393,-0.457985,-0.24172397,-0.052452393,0.23393014,0.44628027
-0.12726459,1.6403112,0.9598246,-0.42973468,-0.5173063,1.7277055,-0.23589778,-0.57186913,-0.22307481,-0.11975944,0.18984467,0.51485044
-0.15987144,1.3927714,0.88174844,-0.3280034,-0.49655303,1.5320791,-0.5566793,-0.7182916,-0.43443176,-0.1736051,0.12686542,0.43770897
-0.18782018,1.2127424,0.83155656,-0.2480717,-0.49136472,1.3907936,-0.50732833,-0.7142243,-0.5587594,-0.22745077,0.082779944,0.39485264
-0.23440142,0.9314472,0.74232656,-0.11727436,-0.47579977,1.1734312,-0.44152698,-0.7264262,-0.6084904,-0.30821922,0.013502777,0.31771126
-0.3135895,0.66140383,0.70328844,0.028056035,-0.50174135,0.9995413,-0.3592753,-0.710157,-0.60227406,-0.3755263,-0.024284773,0.21485604
-0.35085452,0.41386408,0.62521213,0.14432034,-0.4861764,0.803915,-0.30169913,-0.7223589,-0.6582215,-0.46302548,-0.068370245,0.08628705
-0.369487,0.31259775,0.59732777,0.18065295,-0.4861764,0.7387063,-0.24412295,-0.7142243,-0.6333559,-0.44283336,-0.09356194,-0.007996892
-0.42072636,0.16632424,0.58059716,0.2751177,-0.50692964,0.6408932,-0.17009646,-0.66948414,-0.6209232,-0.43610263,-0.14394534,-0.033710696
-0.42072636,-0.013704699,0.5025209,0.32598332,-0.46542317,0.47787136,-0.16187128,-0.6491477,-0.57119215,-0.33514208,-0.14394534,0.017716909
-0.5232051,-0.31750354,0.47463655,0.50764626,-0.512118,0.31484953,0.4714666,-0.34003362,-0.3287533,-0.34187275,-0.30139345,-0.2137073
-0.597735,-2.702887,-0.6240076,1.3360295,-0.039981175,-1.9131157,1.5407383,0.8150768,0.33018306,-0.15341298,-0.71705645,-1.2422593
1.2329074,-0.90259755,-1.9178423,-0.66952986,1.5787736,-2.304368,0.932076,1.96612,1.927793,1.8859911,1.336067,0.6777045
5.299449,4.104457,-4.310321,-5.458166,4.9563675,-2.2174232,-3.1229315,0.7255964,2.760788,5.318651,5.769806,5.5890403
6.1891503,4.216975,-5.3141584,-6.184818,5.9162064,-3.1412137,-6.034641,-2.422486,-0.098747216,3.535014,5.007757,5.837607
2.1831646,0.85268456,-2.1911092,-1.9775034,2.2325015,-1.7174895,-4.5129848,-4.0087295,-4.3134537,-2.7514656,-0.37067062,1.5005462
-0.19247831,-1.3301663,-0.428817,0.5803115,0.094915055,-1.065402,-1.8973815,-2.2516599,-3.1882887,-2.8591568,-1.4979992,-0.6765557
-0.10397397,-0.6775614,-0.20574203,0.30418378,0.037843578,-0.52199596,-0.4579773,-0.39290836,-0.3349697,-0.3687956,-0.33288306,-0.23084983
-0.32756385,-0.57629514,0.10656289,0.44224766,-0.2319489,-0.17421599,-0.14542094,-0.25462052,-0.25415674,-0.52360183,-0.46513948,-0.1365659
-0.43935883,-0.72256863,0.16233164,0.57304496,-0.32015026,-0.18508412,0.0026320582,-0.18140928,-0.14847825,-0.32841134,-0.35177687,-0.2651349
-0.53252125,-0.5650433,0.35752222,0.5948445,-0.46023482,0.08661894,0.20003608,-0.14887096,-0.1360455,-0.33514208,-0.35177687,-0.28227744
-0.5371794,-0.7113168,0.28502285,0.6457102,-0.43429324,-0.065534785,0.29051292,-0.095996186,-0.11739635,-0.2812964,-0.30139345,-0.3679901
-0.5092307,-0.57629514,0.32963783,0.5803115,-0.43429324,0.043146446,0.3480891,-0.022784967,-0.049016166,-0.21398936,-0.28249967,-0.37656137
-0.51388884,-0.6213023,0.30733037,0.60211104,-0.4291049,-0.00032604364,0.33163875,0.013820645,-0.061448924,-0.2611043,-0.32658514,-0.427989
-0.49525636,-0.5650433,0.31290722,0.56577843,-0.4187283,0.032278325,0.36453944,0.08703187,0.025580406,-0.20052792,-0.30139345,-0.45370278
-0.4999144,-0.58754694,0.30733037,0.5803115,-0.4187283,0.01054208,0.38921493,0.11143561,0.006931263,-0.22072005,-0.32658514,-0.47941658
-0.5278632,-0.76757586,0.2571385,0.6602432,-0.4083517,-0.11987539,0.3727646,0.13583936,0.08152784,-0.18706651,-0.30139345,-0.47941658
-0.5278632,-0.81258315,0.22925411,0.67477626,-0.39797503,-0.16334789,0.41389042,0.20905057,0.09396059,-0.19379722,-0.32028723,-0.5051304
-0.4626495,-0.74507225,0.18463914,0.60211104,-0.34090355,-0.17421599,0.4221156,0.30259824,0.13747525,-0.13322085,-0.30769137,-0.5308442
-0.4253845,-0.72256863,0.15117788,0.56577843,-0.30458534,-0.19595224,0.41389042,0.3636076,0.23072097,-0.106298044,-0.3139893,-0.5137017
-0.35551265,-0.6663096,0.089832276,0.49311325,-0.23713721,-0.22855662,0.5619434,0.46935713,0.29910117,-0.07264451,-0.30769137,-0.48798785
-0.28564078,-0.6325542,0.028486665,0.42771462,-0.17487742,-0.28289723,0.6441951,0.5832412,0.4234288,0.014854672,-0.2636059,-0.46227404
-0.27632454,-0.76757586,-0.04401269,0.46404716,-0.13337088,-0.4133147,0.6441951,0.6930581,0.5291073,0.09562315,-0.22581834,-0.44513154
-0.26700827,-0.88009393,-0.11651205,0.49311325,-0.09186434,-0.53286403,0.6770958,0.8679516,0.67208403,0.23023728,-0.18173288,-0.41084647
-0.15987144,-0.81258315,-0.21131891,0.391382,0.011901994,-0.59807277,0.7511223,1.1241909,0.96425384,0.44561988,-0.14394534,-0.3937039
-0.05739274,-0.74507225,-0.30054888,0.28965074,0.11048,-0.65241337,0.87449974,1.3722955,1.2253418,0.6071569,-0.09985986,-0.37656137
0.10098345,-0.74507225,-0.48458573,0.1661199,0.28169447,-0.82630336,0.9074004,1.6692078,1.4739971,0.8158087,-0.062072318,-0.3422763
0.310599,-0.61005056,-0.67419946,-0.044609163,0.48922712,-0.9567209,0.94852626,1.9701872,1.7599506,1.0311913,-0.030582696,-0.32513377
0.4503427,-0.8013313,-0.93631244,-0.08820827,0.6863832,-1.2936326,1.0554535,2.2142246,1.9775239,1.1119599,0.00090692664,-0.29941997
0.650642,-1.0376192,-1.2988093,-0.16814,0.9665523,-1.760962,1.0554535,2.3809836,2.0459042,1.0917678,0.0449924,-0.27370617
0.8136763,-1.060123,-1.4939998,-0.2916708,1.1481434,-1.9565881,0.9896521,2.4216564,2.0210385,0.99753785,0.057588246,-0.25656366
0.8509413,-1.2063963,-1.6166912,-0.26987126,1.2259681,-2.1522145,0.932076,2.3037052,1.9340093,0.93023074,0.032396547,-0.22227857
0.86491567,-1.1726409,-1.6166912,-0.2916708,1.2363448,-2.1304781,0.8909501,2.023062,1.6729213,0.84946233,0.038694475,-0.15370843
0.7298301,-1.0938783,-1.4159236,-0.21900563,1.0651302,-1.9022475,0.7757978,1.5919293,1.3931842,0.7283096,0.013502777,-0.10228084
0.47829142,-0.8575904,-1.0032349,-0.095474795,0.73307806,-1.3914458,0.6359699,1.042845,1.0388504,0.53984976,0.00090692664,-0.042281955
0.30594087,-0.48628065,-0.6072769,-0.08094175,0.4529089,-0.82630336,0.47969177,0.59951043,0.62856936,0.35812068,0.00090692664,0.009145642
0.12427407,-0.2949999,-0.29497203,0.006256477,0.20386972,-0.42418283,0.3398639,0.24158889,0.37369773,0.31773645,0.032396547,0.060573243
-0.10397397,-0.18248183,0.034063537,0.13705382,-0.071111076,-0.054666657,0.24938707,-0.03498684,0.11882611,0.15619951,0.082779944,0.103429586
-0.2716664,-0.14872642,0.2515616,0.26058465,-0.26307878,0.16269581,0.15068507,-0.19767843,-0.073881686,-0.045721687,0.057588246,0.08628705
-0.35551265,-0.09246736,0.3798297,0.3114503,-0.37722176,0.32571766,0.13423473,-0.2993607,-0.1360455,-0.106298044,0.026098626,0.043430712
-0.36017078,-0.047460128,0.40771407,0.29691726,-0.3875984,0.36919016,0.101334065,-0.31969714,-0.19820932,-0.14668228,0.00090692664,0.026288174
-0.36017078,-0.024956506,0.4244447,0.28238422,-0.39278668,0.4017945,0.08488373,-0.34816816,-0.2665895,-0.19379722,-0.030582696,-0.01656816
-0.40675196,0.008798919,0.49136716,0.3114503,-0.4550465,0.4887395,0.051983062,-0.3766392,-0.31632054,-0.23418146,-0.062072318,-0.050853226
-0.4114101,0.042554345,0.5136747,0.3114503,-0.47061145,0.5213438,0.051983062,-0.35630277,-0.30388775,-0.23418146,-0.08096609,-0.050853226
-0.38811952,0.07630978,0.5025209,0.2751177,-0.4550465,0.5213438,0.1671354,-0.33596632,-0.27902228,-0.23418146,-0.09985986,-0.050853226
-0.38811952,0.098813385,0.5080978,0.26785117,-0.4550465,0.5430801,0.15891023,-0.32376444,-0.26037312,-0.24091217,-0.118753634,-0.050853226
-0.36482885,0.1325688,0.5080978,0.2387851,-0.43948156,0.5539482,0.10955924,-0.2993607,-0.22929122,-0.22745077,-0.13134949,-0.050853226
-0.36482885,0.14382061,0.5136747,0.2387851,-0.43948156,0.56481636,0.08488373,-0.29529342,-0.21685845,-0.25437358,-0.15654118,-0.050853226
-0.38811952,0.14382061,0.5304053,0.25331816,-0.46542317,0.5865526,0.043757897,-0.31562984,-0.25415674,-0.2812964,-0.14394534,-0.050853226
-0.38811952,0.14382061,0.5359822,0.25331816,-0.46542317,0.5865526,0.0026320582,-0.33189902,-0.2976714,-0.31494993,-0.12505156,-0.09370956
-0.38811952,0.14382061,0.5359822,0.25331816,-0.46542317,0.5865526,-0.022043444,-0.34816816,-0.3349697,-0.33514208,-0.1124557,-0.09370956
-0.38811952,0.14382061,0.5359822,0.25331816,-0.46542317,0.5865526,-0.046718944,-0.35630277,-0.37226796,-0.33514208,-0.09356194,-0.09370956
-0.38811952,0.14382061,0.5359822,0.25331816,-0.46542317,0.5865526,-0.07139444,-0.3847738,-0.39091712,-0.34187275,-0.07466817,-0.09370956
-0.37880325,0.14382061,0.5192515,0.24605161,-0.4498582,0.5756844,-0.09606995,-0.40104297,-0.42199904,-0.32168067,-0.055774394,-0.085138306
-0.36482885,0.14382061,0.5080978,0.2387851,-0.43948156,0.56481636,-0.11252028,-0.457985,-0.4592973,-0.40917984,-0.12505156,-0.11942336
-0.36482885,0.14382061,0.5080978,0.2387851,-0.43948156,0.56481636,-0.11252028,-0.527129,-0.49659556,-0.51687115,-0.16283911,-0.1365659
-0.36482885,0.14382061,0.5080978,0.2387851,-0.43948156,0.56481636,-0.11252028,-0.53526354,-0.5338939,-0.496679,-0.15024325,-0.1365659
-0.34153825,0.20007966,0.5080978,0.2024525,-0.4291049,0.5865526,-0.11252028,-0.55560005,-0.57119215,-0.50340974,-0.1880308,-0.1365659
-0.32290578,0.25633872,0.5080978,0.1661199,-0.4187283,0.61915696,-0.11252028,-0.57186913,-0.6084904,-0.50340974,-0.21952043,-0.1365659
-0.32756385,0.29009414,0.5359822,0.15885338,-0.43429324,0.6626294,-0.11252028,-0.57593644,-0.6209232,-0.50340974,-0.21952043,-0.1365659
-0.33688012,0.357605,0.58059716,0.14432034,-0.46023482,0.72783816,-0.12074546,-0.57593644,-0.6209232,-0.53033257,-0.23211628,-0.1365659
-0.34153825,0.3688568,0.5917509,0.14432034,-0.46542317,0.7495744,-0.14542094,-0.57593644,-0.6457887,-0.53706324,-0.25730798,-0.1365659
-0.34153825,0.3688568,0.5861741,0.14432034,-0.46542317,0.7495744,-0.15364611,-0.58000374,-0.6520051,-0.543794,-0.25101003,-0.1365659
-0.34619638,0.3688568,0.59732777,0.15158686,-0.47061145,0.7604426,-0.17832161,-0.56780183,-0.6520051,-0.53033257,-0.23211628,-0.11942336
-0.33222198,0.3688568,0.58059716,0.13705382,-0.4550465,0.7387063,-0.20299713,-0.55560005,-0.6147068,-0.496679,-0.21322252,-0.07656703
-0.40209383,0.3688568,0.66982716,0.19518597,-0.5380596,0.8256513,-0.17009646,-0.54746544,-0.5836249,-0.4562948,-0.19432873,-0.050853226
-0.49525636,0.3688568,0.7757878,0.26785117,-0.6366376,0.92346436,-0.15364611,-0.53119624,-0.54632664,-0.43610263,-0.17543496,-0.025139429
-0.36017078,0.650152,0.7479034,0.071655154,-0.5484362,1.0430137,-0.16187128,-0.5230617,-0.5152447,-0.40244913,-0.15654118,0.017716909
-0.23440142,1.0214617,0.7869415,-0.14634043,-0.49655303,1.249508,-0.14542094,-0.5067925,-0.47794643,-0.3687956,-0.15024325,0.03485944
-0.26700827,0.9989581,0.8148259,-0.11727436,-0.52768296,1.2712443,-0.17009646,-0.5230617,-0.45308092,-0.39571843,-0.068370245,0.09485832
-0.14589708,1.3815196,0.85944086,-0.3280034,-0.4861764,1.5103428,-0.12897062,-0.5027252,-0.42821538,-0.39571843,-0.024284773,0.18057099
-0.038760245,1.7190739,0.898479,-0.531466,-0.43948156,1.7059691,-0.37572563,-0.54339814,-0.38470072,-0.40917984,-0.030582696,0.28342617
-0.071367115,1.5052894,0.83155656,-0.43700117,-0.4239166,1.5320791,-0.8034344,-0.67355144,-0.5836249,-0.3889877,-0.030582696,0.30914
-0.071367115,1.4715341,0.809249,-0.42246816,-0.4187283,1.4994749,-0.8692357,-0.67355144,-0.73281807,-0.43610263,-0.024284773,0.23199858
-0.16452958,1.0889726,0.73674965,-0.22627214,-0.43429324,1.23864,-0.7458582,-0.6857533,-0.7141689,-0.58417815,-0.049476475,0.13771464
-0.24837579,0.87518823,0.73117274,-0.095474795,-0.48098812,1.1299587,-0.46620247,-0.66541684,-0.72038525,-0.5909089,-0.16913703,0.060573243
-0.26700827,0.69515926,0.66425025,-0.015543082,-0.46023482,0.977805,-0.3839508,-0.6898206,-0.7701163,-0.65148526,-0.2950955,-0.01656816
-0.28564078,0.593893,0.6363659,0.028056035,-0.4550465,0.90172815,-0.36750045,-0.66541684,-0.72038525,-0.5976396,-0.32028723,-0.067995764
-0.29495698,0.50387853,0.6029047,0.06438863,-0.4498582,0.8365194,-0.29347396,-0.66541684,-0.7452508,-0.5909089,-0.32658514,-0.12799463
-0.37414512,0.2450869,0.5694434,0.209719,-0.47579977,0.67349756,-0.34282497,-0.6491477,-0.62713957,-0.4899483,-0.2887976,-0.17942224
-0.5045726,-0.10371917,0.5527128,0.42771462,-0.5380596,0.4887395,0.20003608,-0.27088967,-0.40334985,-0.50340974,-0.45884156,-0.38513264
-0.5651282,-2.5453618,-0.58496946,1.2633643,-0.039981175,-1.8044344,1.4420363,0.7947403,0.280452,-0.30148855,-0.9059942,-1.3194008
1.1444031,-0.7900795,-1.7616899,-0.63319725,1.4594423,-2.0978737,1.0883541,2.0433984,2.1453662,2.0407972,1.2667898,0.6091343
5.0339355,4.3745008,-3.8585944,-5.3419013,4.598374,-1.6414126,-2.6952226,1.1811329,3.3948586,6.0455675,6.3051295,5.9404626
5.905005,4.216975,-4.979546,-5.966822,5.6049075,-2.81517,-5.656283,-1.6659701,0.86479175,4.820579,5.914658,6.514737
2.1831646,1.1114762,-2.068418,-2.057435,2.17543,-1.4783908,-4.4965343,-3.4799814,-3.8410084,-1.9774344,-0.036880624,1.723399
-0.12726459,-0.7338205,-0.21131891,0.34051636,0.027466943,-0.5546003,-2.0536597,-2.1743815,-3.343698,-2.919733,-1.6869369,-0.72798336
-0.14123896,-0.407518,-0.03285895,0.2387851,-0.060734443,-0.22855662,-0.67183167,-0.4254467,-0.48416284,-0.42264125,-0.45884156,-0.25656366
-0.34619638,-0.23874088,0.2961766,0.34051636,-0.33052692,0.17356393,-0.22767262,-0.27902424,-0.37226796,-0.44283336,-0.43994778,-0.2651349
-0.38811952,-0.31750354,0.30175346,0.40591505,-0.35646847,0.14095956,-0.03849378,-0.18140928,-0.27280587,-0.22072005,-0.37696853,-0.41084647
-0.37414512,-0.15997823,0.37425283,0.34051636,-0.38241008,0.28224516,-0.0055931094,-0.14887096,-0.25415674,-0.267835,-0.45884156,-0.43656024
-0.30427325,-0.18248183,0.27944598,0.29691726,-0.299397,0.18443203,0.010857226,-0.12853451,-0.24172397,-0.24764289,-0.43364984,-0.44513154
-0.30893138,-0.19373363,0.26829222,0.30418378,-0.29420868,0.16269581,0.051983062,-0.07159245,-0.1671274,-0.20052792,-0.4777353,-0.43656024
-0.369487,-0.4412734,0.22367725,0.4349811,-0.30977362,0.01054208,0.07665857,-0.06345787,-0.19820932,-0.22072005,-0.5785021,-0.59941435
-0.32290578,-0.41876978,0.17906225,0.3841155,-0.26307878,-0.02206229,0.10955924,-0.006515805,-0.11117997,-0.23418146,-0.55331045,-0.6079856
-0.32290578,-0.407518,0.18463914,0.3841155,-0.26826712,-0.011194166,0.14245991,0.017887937,-0.1360455,-0.32168067,-0.5785021,-0.62512815
-0.33688012,-0.48628065,0.1679085,0.42044806,-0.26307878,-0.076402895,0.20826124,0.09923374,-0.03036702,-0.21398936,-0.55331045,-0.6594132
-0.37414512,-0.58754694,0.15675476,0.47858024,-0.27864376,-0.13074352,0.24116191,0.1602431,0.019364024,-0.21398936,-0.5722042,-0.6336994
-0.33688012,-0.5537915,0.12887038,0.44224766,-0.24751385,-0.14161164,0.2987381,0.21311787,0.10639336,-0.13995157,-0.55331045,-0.6079856
-0.29961511,-0.50878423,0.10656289,0.39864853,-0.21638393,-0.14161164,0.28228775,0.327002,0.24315374,-0.11302875,-0.50922495,-0.58227175
-0.2716664,-0.47502884,0.089832276,0.36231595,-0.19044235,-0.14161164,0.3480891,0.42461693,0.32396668,-0.059183095,-0.45884156,-0.5651293
-0.22974329,-0.4300216,0.06194791,0.3114503,-0.15931246,-0.14161164,0.50436723,0.49376088,0.4234288,0.028316086,-0.40845814,-0.5394155
-0.16452958,-0.38501436,0.0061791693,0.25331816,-0.09705266,-0.17421599,0.50436723,0.64018327,0.56640553,0.10235385,-0.36437267,-0.5137017
-0.108632095,-0.36251074,-0.049589563,0.2024525,-0.03479286,-0.21768849,0.5290427,0.8313459,0.7591134,0.21004516,-0.30139345,-0.4965591
-0.052734617,-0.36251074,-0.11651205,0.1661199,0.027466943,-0.28289723,0.6606454,1.0916526,1.0388504,0.3917742,-0.21322252,-0.4708453
0.0916672,-0.31750354,-0.27266452,0.035322558,0.17792815,-0.4133147,0.7182216,1.3560264,1.324804,0.66100246,-0.12505156,-0.44513154
0.25470152,-0.3062517,-0.45670134,-0.102741316,0.35433093,-0.5872047,0.7593474,1.6326021,1.5921085,0.8831158,-0.07466817,-0.4194177
0.4130777,-0.3062517,-0.64631504,-0.22627214,0.53073364,-0.77196276,0.9074004,1.9132452,1.8283309,1.0513835,-0.036880624,-0.3937039
0.56679577,-0.4412734,-0.8972743,-0.29893732,0.73307806,-1.0762702,0.95675147,2.149148,2.0210385,1.1523441,0.007204851,-0.38513264
0.71119756,-0.52003604,-1.1147724,-0.38613555,0.9146691,-1.3371052,0.87449974,2.2833686,2.089419,1.2129205,0.051290326,-0.3422763
0.8509413,-0.76757586,-1.399193,-0.41520163,1.12739,-1.7283576,0.8333739,2.2955704,2.0645533,1.2263818,0.089077875,-0.31656253
0.8416251,-0.992612,-1.4995768,-0.33526993,1.1688966,-1.934852,0.7675726,2.2223592,1.9899567,1.132152,0.07648202,-0.2908487
0.8136763,-0.8575904,-1.399193,-0.35706946,1.1066369,-1.7718302,0.72644675,1.9295144,1.7226524,0.97061497,0.057588246,-0.24799237
0.762437,-0.8238349,-1.3211168,-0.3280034,1.0443771,-1.6848851,0.6606454,1.5024488,1.3185875,0.73504025,0.038694475,-0.22227857
0.5108983,-0.6775614,-0.9474662,-0.18267304,0.7227014,-1.2501601,0.5537182,1.0265759,0.9456047,0.49273482,0.0198007,-0.18799351
0.25935966,-0.31750354,-0.473432,-0.095474795,0.36470753,-0.6089409,0.46324143,0.5873085,0.5477564,0.31773645,0.007204851,-0.14513716
0.11961594,0.042554345,-0.12208893,-0.102741316,0.12085664,-0.09813914,0.3398639,0.24565618,0.21828821,0.18985304,-0.011688923,-0.10228084
-0.03410212,0.32384956,0.20136975,-0.07367524,-0.11261761,0.34745386,0.22471158,-0.002448515,0.04422955,0.048508205,-0.030582696,-0.07656703
-0.17850395,0.41386408,0.41886783,0.006256477,-0.299397,0.6082888,0.14245991,-0.16107282,-0.11739635,-0.065913804,-0.049476475,-0.025139429
-0.25769204,0.44761947,0.5304053,0.04985559,-0.39278668,0.72783816,0.13423473,-0.27495694,-0.24794035,-0.15341298,-0.062072318,-0.01656816
-0.33688012,0.42511585,0.6140584,0.122520775,-0.47579977,0.803915,0.13423473,-0.30749527,-0.291455,-0.22745077,-0.08726402,-0.050853226
-0.38811952,0.38010862,0.6530965,0.17338642,-0.5224947,0.8256513,0.13423473,-0.303428,-0.2976714,-0.23418146,-0.09356194,-0.042281955
-0.38811952,0.3688568,0.6419428,0.18065295,-0.5173063,0.79304695,0.13423473,-0.29529342,-0.3287533,-0.23418146,-0.1124557,-0.067995764
-0.4114101,0.31259775,0.64751965,0.21698554,-0.53287125,0.7821788,0.1177844,-0.27902424,-0.34118605,-0.267835,-0.13134949,-0.10228084
-0.4114101,0.31259775,0.64751965,0.21698554,-0.53287125,0.7821788,0.0931089,-0.27088967,-0.31010416,-0.267835,-0.12505156,-0.085138306
-0.38811952,0.3688568,0.64751965,0.18065295,-0.5173063,0.803915,0.0684334,-0.25462052,-0.31010416,-0.27456573,-0.12505156,-0.12799463
-0.36482885,0.3688568,0.62521213,0.1661199,-0.49136472,0.7821788,0.051983062,-0.25055322,-0.30388775,-0.30148855,-0.12505156,-0.1365659
-0.36482885,0.3688568,0.6196353,0.1661199,-0.49136472,0.7821788,0.019082393,-0.2627551,-0.27902228,-0.31494993,-0.13134949,-0.1365659
-0.36482885,0.3688568,0.6196353,0.1661199,-0.49136472,0.7821788,0.010857226,-0.27495694,-0.27902228,-0.33514208,-0.15654118,-0.17942224
-0.36017078,0.3688568,0.6196353,0.15885338,-0.4861764,0.7821788,-0.013818276,-0.28715882,-0.291455,-0.3620649,-0.15654118,-0.17942224
-0.37880325,0.34635317,0.62521213,0.18791947,-0.50174135,0.7713106,-0.03849378,-0.2993607,-0.31632054,-0.3687956,-0.15654118,-0.17942224
-0.37880325,0.30134594,0.6029047,0.19518597,-0.49655303,0.7387063,-0.030268608,-0.30749527,-0.40334985,-0.39571843,-0.15654118,-0.17942224
-0.36017078,0.31259775,0.5917509,0.18065295,-0.48098812,0.72783816,-0.030268608,-0.34003362,-0.44686452,-0.40244913,-0.15654118,-0.17942224
-0.36482885,0.31259775,0.5917509,0.18065295,-0.48098812,0.72783816,-0.030268608,-0.3847738,-0.42821538,-0.40244913,-0.18173288,-0.17942224
-0.36482885,0.31259775,0.5917509,0.18065295,-0.48098812,0.72783816,-0.03849378,-0.41731212,-0.44064817,-0.43610263,-0.1880308,-0.17942224
-0.36482885,0.31259775,0.5917509,0.18065295,-0.48098812,0.72783816,-0.07139444,-0.44171587,-0.48416284,-0.43610263,-0.20062667,-0.17942224
-0.38811952,0.25633872,0.59732777,0.21698554,-0.49655303,0.70610195,-0.07139444,-0.4742542,-0.50281197,-0.44283336,-0.21952043,-0.15370843
-0.40675196,0.25633872,0.6140584,0.2387851,-0.512118,0.7169701,-0.07139444,-0.49052334,-0.4903792,-0.4697562,-0.22581834,-0.11085211
-0.41606823,0.25633872,0.62521213,0.2387851,-0.5224947,0.7387063,-0.07139444,-0.4986579,-0.50281197,-0.4697562,-0.25101003,-0.085138306
-0.40209383,0.25633872,0.6084815,0.2315186,-0.50692964,0.7169701,-0.07139444,-0.54746544,-0.57119215,-0.4697562,-0.25101003,-0.059424493
-0.4347007,0.25633872,0.64751965,0.25331816,-0.5432479,0.7604426,-0.10429512,-0.55966735,-0.59605765,-0.4697562,-0.25101003,-0.01656816
-0.49525636,0.23383509,0.7088653,0.3114503,-0.6055077,0.79304695,-0.12074546,-0.55560005,-0.5836249,-0.4697562,-0.25101003,-0.01656816
-0.48128197,0.18882786,0.675404,0.3114503,-0.5847544,0.7495744,-0.10429512,-0.57593644,-0.5898413,-0.496679,-0.25101003,-0.050853226
-0.4719657,0.16632424,0.64751965,0.3114503,-0.56400114,0.70610195,-0.12074546,-0.57593644,-0.5898413,-0.57744753,-0.27620175,-0.067995764
-0.4719657,0.1325688,0.63078904,0.32598332,-0.5536245,0.67349756,-0.10429512,-0.57186913,-0.5898413,-0.60437036,-0.28249967,-0.09370956
-0.45799136,0.098813385,0.5917509,0.32598332,-0.53287125,0.61915696,-0.15364611,-0.55560005,-0.5898413,-0.60437036,-0.28249967,-0.11942336
-0.4719657,0.08756158,0.6084815,0.33324987,-0.5484362,0.6300251,-0.23589778,-0.55560005,-0.5898413,-0.60437036,-0.28249967,-0.1365659
-0.4626495,0.14382061,0.62521213,0.31871682,-0.5484362,0.67349756,-0.17009646,-0.55560005,-0.5898413,-0.61110103,-0.2887976,-0.11085211
-0.4347007,0.20007966,0.6196353,0.2751177,-0.53287125,0.6952338,-0.12074546,-0.55153275,-0.5898413,-0.60437036,-0.27620175,-0.059424493
-0.4253845,0.2225833,0.6196353,0.26058465,-0.52768296,0.70610195,-0.06316928,-0.55560005,-0.5898413,-0.58417815,-0.22581834,-0.025139429
-0.36017078,0.39136046,0.62521213,0.15885338,-0.49136472,0.79304695,-0.0055931094,-0.5637346,-0.57119215,-0.5572553,-0.16283911,0.017716909
-0.28098264,0.7289147,0.6977115,-0.015543082,-0.48098812,1.0321456,-0.013818276,-0.58407104,-0.4903792,-0.40244913,-0.118753634,0.052001975
-0.2111108,0.90894365,0.6977115,-0.1318074,-0.4446699,1.1190907,-0.030268608,-0.5637346,-0.42199904,-0.25437358,-0.055774394,0.09485832
-0.1691877,0.88644,0.6419428,-0.15360695,-0.39278668,1.0430137,-0.07139444,-0.55153275,-0.42821538,-0.1736051,-0.005390998,0.13771464
-0.085341476,1.2464979,0.7200191,-0.33526993,-0.3875984,1.3038487,-0.06316928,-0.49052334,-0.44686452,-0.11302875,0.07648202,0.18914224
0.04042785,1.539045,0.7144422,-0.531466,-0.30977362,1.434266,-0.32637465,-0.55153275,-0.4592973,-0.20725863,0.18984467,0.23199858
0.021795357,1.2464979,0.5917509,-0.42246816,-0.26307878,1.1734312,-0.6142555,-0.6938879,-0.5152447,-0.32168067,0.13946126,0.27485493
-0.038760245,1.0327135,0.55828965,-0.30620384,-0.28383204,1.0321456,-0.51555353,-0.66948414,-0.6582215,-0.39571843,0.038694475,0.34342504
-0.108632095,0.7739219,0.5136747,-0.16814,-0.299397,0.8691238,-0.42507663,-0.7264262,-0.67065424,-0.496679,-0.030582696,0.23199858
-0.22508518,0.593893,0.55828965,-0.0228096,-0.3875984,0.8256513,-0.35105014,-0.74269533,-0.6333559,-0.58417815,-0.09356194,0.060573243
-0.27632454,0.357605,0.5080978,0.10072123,-0.39278668,0.6626294,-0.35105014,-0.7182916,-0.683087,-0.6447545,-0.14394534,-0.042281955
-0.33222198,0.32384956,0.55828965,0.15158686,-0.4446699,0.70610195,-0.29347396,-0.66134953,-0.57740855,-0.60437036,-0.19432873,-0.033710696
-0.3834614,0.12131701,0.5192515,0.25331816,-0.4550465,0.56481636,-0.29347396,-0.66134953,-0.6768706,-0.6178317,-0.2636059,-0.11942336
-0.4486751,0.12131701,0.59732777,0.3114503,-0.52768296,0.6300251,-0.21944746,-0.5922056,-0.54011023,-0.47648692,-0.18173288,-0.085138306
-0.60239315,-0.5650433,0.44675222,0.6529767,-0.5432479,0.16269581,0.5372679,-0.17734198,-0.38470072,-0.5572553,-0.42735195,-0.47941658
-0.41606823,-2.6916351,-0.8359287,1.1979656,0.16236319,-2.1087418,1.6558907,1.055047,0.45451066,-0.13322085,-0.73595023,-1.3279719
1.7499591,0.031302538,-2.0795717,-1.3743823,1.9419559,-2.0109289,0.6770958,2.0189948,2.2323956,2.4244478,1.9847531,1.4148334
5.672098,4.6670475,-4.4832044,-5.9304895,5.241725,-2.1087418,-3.5670905,0.3717422,2.7732208,5.8907614,6.5444508,6.2318854
5.7652607,3.7781546,-5.029738,-5.719761,5.547836,-3.0760047,-6.034641,-2.6868598,-0.41578263,3.3398235,4.8692026,5.657611
1.7406429,0.12131701,-2.0238028,-1.3961817,1.910826,-1.9131157,-4.323806,-3.780961,-4.468863,-3.0139632,-0.7107585,1.0891253
-0.117948346,-1.3864254,-0.54593134,0.54397887,0.19349308,-1.1958196,-1.6999775,-1.8164599,-2.6971943,-2.441853,-1.3279551,-0.6422707
-0.17384583,-0.8238349,-0.20016517,0.40591505,0.0015253596,-0.5872047,-0.42507663,-0.31562984,-0.27902228,-0.30148855,-0.35807475,-0.11085211
-0.38811952,-0.8688421,0.034063537,0.587578,-0.2319489,-0.38071033,-0.18654679,-0.2668224,-0.4592973,-0.52360183,-0.5470125,-0.18799351
-0.33688012,-0.8238349,-0.004974579,0.52217937,-0.18006572,-0.4024466,-0.022043444,-0.079727024,-0.16091102,-0.19379722,-0.339181,-0.24799237
-0.369487,-0.72256863,0.084255405,0.52217937,-0.24751385,-0.2720291,0.051983062,-0.11226535,-0.25415674,-0.3620649,-0.40845814,-0.32513377
-0.35085452,-0.7338205,0.05079416,0.50764626,-0.21638393,-0.30463347,0.13423473,-0.047188707,-0.1671274,-0.27456573,-0.339181,-0.3937039
-0.39277765,-0.70006496,0.12329351,0.5294459,-0.2734554,-0.21768849,0.22471158,-0.022784967,-0.1360455,-0.30148855,-0.34547892,-0.3937039
-0.42072636,-0.8013313,0.10656289,0.587578,-0.28383204,-0.28289723,0.2740626,0.0016187753,-0.12361273,-0.31494993,-0.32028723,-0.44513154
-0.40209383,-0.7900795,0.089832276,0.56577843,-0.26307878,-0.29376534,0.3151884,0.07889729,-0.049016166,-0.25437358,-0.3139893,-0.46227404
-0.43935883,-0.8688421,0.09540915,0.6239106,-0.2890204,-0.32636973,0.28228775,0.11143561,-0.01793426,-0.267835,-0.42105404,-0.47941658
-0.4114101,-0.8463385,0.073101655,0.5948445,-0.26307878,-0.33723783,0.3398639,0.2049833,0.10017698,-0.18706651,-0.38326648,-0.427989
-0.38811952,-0.81258315,0.06194791,0.56577843,-0.24232551,-0.32636973,0.43856594,0.27412722,0.1250425,-0.20052792,-0.37696853,-0.44513154
-0.37414512,-0.7900795,0.06194791,0.5512454,-0.23713721,-0.3155016,0.40566525,0.3636076,0.21207184,-0.13995157,-0.34547892,-0.4194177
-0.34153825,-0.75632405,0.03964041,0.50764626,-0.21119563,-0.32636973,0.51259243,0.4490207,0.280452,-0.12649015,-0.32658514,-0.38513264
-0.28564078,-0.72256863,-0.010551452,0.45678064,-0.15412414,-0.3589741,0.6524203,0.5385011,0.38613048,-0.08610593,-0.30769137,-0.40227517
-0.25303394,-0.70006496,-0.04401269,0.42771462,-0.11780593,-0.3698422,0.66887057,0.6645871,0.49802533,0.014854672,-0.25730798,-0.35941884
-0.22974329,-0.7338205,-0.088627696,0.41318157,-0.08667603,-0.43505093,0.70177126,0.8110095,0.6347857,0.18985304,-0.20692457,-0.3508476
-0.18782018,-0.8575904,-0.20016517,0.42771462,-0.008851274,-0.6089409,0.7511223,1.0184413,0.84614265,0.42542776,-0.15654118,-0.3508476
-0.16452958,-0.91384935,-0.25593388,0.42771462,0.027466943,-0.6958859,0.78402287,1.2624788,1.0947978,0.56004184,-0.1124557,-0.31656253
-0.024785876,-0.8350867,-0.384202,0.28965074,0.16236319,-0.77196276,0.8909501,1.5431218,1.3434532,0.7888859,-0.055774394,-0.30799124
0.1708553,-0.7788276,-0.5905463,0.122520775,0.36989588,-0.9458527,1.0554535,1.8481685,1.6418394,1.1119599,0.032396547,-0.29941997
0.3338896,-0.72256863,-0.75785244,-0.0228096,0.54111034,-1.0762702,1.0225528,2.1288114,1.9464421,1.2869582,0.082779944,-0.25656366
0.5854283,-0.6438059,-1.0199655,-0.2480717,0.80052614,-1.3045008,1.0965793,2.3769164,2.1205008,1.3879188,0.11426957,-0.2137073
0.7670951,-0.76757586,-1.2988093,-0.34980297,1.028812,-1.6305444,1.1952813,2.5233386,2.0956354,1.360996,0.15205713,-0.17085098
0.8555994,-0.992612,-1.5163075,-0.34980297,1.1844616,-1.9565881,1.1048045,2.5396078,2.0334713,1.313881,0.18354674,-0.1365659
0.9441038,-1.048871,-1.6501523,-0.3934021,1.2986046,-2.1087418,1.0472283,2.3647144,2.0334713,1.2936889,0.18984467,-0.09370956
0.95342,-0.97010845,-1.622268,-0.42973468,1.2882279,-2.043533,0.94852626,2.0474658,1.8034652,1.1119599,0.18984467,-0.067995764
0.8323088,-0.8350867,-1.4047699,-0.37886906,1.1170135,-1.7718302,0.7675726,1.5959965,1.3869678,0.8763851,0.18984467,-0.01656816
0.59474456,-0.6775614,-1.0534267,-0.24080516,0.82127947,-1.3479732,0.6195196,1.0591142,1.0077685,0.67446387,0.18984467,0.026288174
0.310599,-0.45252523,-0.5961232,-0.095474795,0.4529089,-0.793699,0.50436723,0.6279814,0.62235296,0.49273482,0.18354674,0.052001975
0.054402217,-0.23874088,-0.18343455,0.04258908,0.11566832,-0.29376534,0.40566525,0.30259824,0.3426158,0.33792856,0.15205713,0.103429586
-0.10397397,-0.14872642,0.045217287,0.1297873,-0.07629939,-0.02206229,0.3480891,0.04635897,0.13747525,0.18312234,0.12056749,0.11200084
-0.22042705,-0.047460128,0.24040785,0.18791947,-0.2319489,0.20616831,0.30696324,-0.12853451,-0.024150642,0.088892445,0.09537579,0.077715784
-0.2716664,0.042554345,0.34636846,0.19518597,-0.30977362,0.34745386,0.2658374,-0.23835135,-0.11739635,0.03504679,0.06388617,0.052001975
-0.2902989,0.12131701,0.40213722,0.18791947,-0.35128018,0.445267,0.21648641,-0.2993607,-0.18577653,-0.01879886,0.032396547,0.03485944
-0.31824765,0.18882786,0.46905968,0.18791947,-0.39797503,0.5430801,0.18358573,-0.31156257,-0.20442568,-0.079375215,0.007204851,0.009145642
-0.33222198,0.16632424,0.48021343,0.2024525,-0.4083517,0.5430801,0.21648641,-0.32376444,-0.19199292,-0.08610593,0.00090692664,-0.01656816
-0.35085452,0.1325688,0.48021343,0.22425205,-0.4187283,0.5213438,0.21648641,-0.33189902,-0.1671274,-0.059183095,0.00090692664,0.026288174
-0.37414512,0.098813385,0.49694404,0.26058465,-0.4446699,0.53221196,0.22471158,-0.31156257,-0.15469465,-0.065913804,0.00090692664,0.03485944
-0.40209383,0.06505796,0.5136747,0.29691726,-0.46542317,0.5213438,0.25761223,-0.31156257,-0.12982911,-0.03899098,0.00090692664,0.03485944
-0.40209383,0.042554345,0.5025209,0.30418378,-0.46023482,0.51047575,0.25761223,-0.31156257,-0.12361273,-0.025529567,-0.005390998,0.03485944
-0.40209383,0.008798919,0.4857903,0.30418378,-0.4498582,0.47787136,0.25761223,-0.31156257,-0.14847825,-0.03899098,-0.030582696,0.03485944
-0.40209383,-0.024956506,0.46905968,0.31871682,-0.43948156,0.445267,0.25761223,-0.31156257,-0.1671274,-0.065913804,-0.024284773,0.026288174
-0.39277765,-0.024956506,0.45790595,0.31871682,-0.4291049,0.42353076,0.25761223,-0.31969714,-0.18577653,-0.106298044,-0.049476475,-0.007996892
-0.37414512,-0.024956506,0.43559843,0.29691726,-0.4083517,0.4126626,0.25761223,-0.33596632,-0.21064207,-0.12649015,-0.068370245,-0.007996892
-0.36482885,-0.024956506,0.4244447,0.28965074,-0.39797503,0.4017945,0.25761223,-0.34816816,-0.22307481,-0.16014369,-0.062072318,-0.007996892
-0.35551265,-0.024956506,0.41329095,0.28238422,-0.3875984,0.38005826,0.25761223,-0.36443734,-0.27902228,-0.19379722,-0.08726402,-0.007996892
-0.32290578,0.020050727,0.39656034,0.24605161,-0.3616568,0.3909264,0.21648641,-0.37257195,-0.3349697,-0.22072005,-0.09356194,-0.007996892
-0.31824765,0.031302538,0.39656034,0.2387851,-0.3616568,0.4017945,0.1918109,-0.39697567,-0.35361883,-0.25437358,-0.09356194,-0.042281955
-0.31824765,0.031302538,0.39656034,0.2387851,-0.3616568,0.4017945,0.15891023,-0.4213794,-0.38470072,-0.27456573,-0.09356194,-0.050853226
-0.29961511,0.07630978,0.39656034,0.209719,-0.35128018,0.42353076,0.12600957,-0.4498504,-0.40334985,-0.30821922,-0.08726402,-0.050853226
-0.2902989,0.098813385,0.39656034,0.19518597,-0.35128018,0.42353076,0.101334065,-0.5027252,-0.43443176,-0.32841134,-0.09985986,-0.050853226
-0.33688012,0.06505796,0.43559843,0.2387851,-0.3875984,0.4561351,0.07665857,-0.5189944,-0.43443176,-0.3486035,-0.12505156,-0.042281955
-0.37414512,0.031302538,0.46905968,0.28238422,-0.4291049,0.46700326,0.051983062,-0.5108598,-0.43443176,-0.3687956,-0.12505156,-0.067995764
-0.40675196,-0.0024528895,0.4857903,0.3114503,-0.4498582,0.46700326,0.02730756,-0.5149271,-0.43443176,-0.3687956,-0.12505156,-0.09370956
-0.43935883,-0.024956506,0.5080978,0.3477829,-0.47579977,0.47787136,0.0026320582,-0.5108598,-0.43443176,-0.3687956,-0.12505156,-0.09370956
-0.41606823,0.020050727,0.5080978,0.31871682,-0.46542317,0.4996076,-0.022043444,-0.5189944,-0.43443176,-0.3687956,-0.12505156,-0.09370956
-0.40675196,0.042554345,0.5080978,0.30418378,-0.46542317,0.51047575,-0.03849378,-0.53119624,-0.44064817,-0.3687956,-0.12505156,-0.09370956
-0.4114101,0.031302538,0.5080978,0.3114503,-0.46542317,0.51047575,-0.06316928,-0.53526354,-0.49659556,-0.40244913,-0.12505156,-0.09370956
-0.4114101,0.031302538,0.5080978,0.3114503,-0.46542317,0.51047575,-0.07139444,-0.53526354,-0.5090284,-0.40244913,-0.12505156,-0.067995764
-0.40675196,0.031302538,0.5080978,0.3114503,-0.46542317,0.51047575,-0.07139444,-0.527129,-0.4903792,-0.40244913,-0.12505156,-0.050853226
-0.3834614,0.1100652,0.5136747,0.26785117,-0.4550465,0.5430801,-0.07139444,-0.5067925,-0.50281197,-0.40244913,-0.12505156,-0.059424493
-0.36482885,0.14382061,0.5080978,0.2387851,-0.43948156,0.56481636,-0.07139444,-0.4945906,-0.4903792,-0.40917984,-0.118753634,-0.050853226
-0.34153825,0.20007966,0.5080978,0.2024525,-0.4291049,0.5865526,-0.07139444,-0.48238873,-0.50281197,-0.3755263,-0.07466817,-0.050853226
-0.31824765,0.25633872,0.5080978,0.1661199,-0.41353998,0.61915696,-0.07139444,-0.46205232,-0.47794643,-0.27456573,-0.036880624,-0.033710696
-0.29495698,0.31259775,0.5136747,0.1297873,-0.40316334,0.6517613,-0.07139444,-0.4539177,-0.34740245,-0.19379722,0.007204851,0.1462859
-0.20179456,0.66140383,0.5694434,-0.059142195,-0.37722176,0.8691238,-0.07139444,-0.429514,-0.20442568,-0.079375215,0.0449924,0.24914111
-0.1319227,0.7401665,0.52482843,-0.13907392,-0.31496197,0.8691238,-0.07961961,-0.43358126,-0.1671274,-0.012068154,0.10797165,0.2577124
-0.0061533833,0.92019546,0.46348283,-0.2916708,-0.22157227,0.89086,-0.06316928,-0.40104297,-0.098747216,0.12927668,0.24022806,0.44628027
0.12427407,1.1339798,0.41329095,-0.46606728,-0.12299425,0.9452006,-0.3099243,-0.4498504,-0.08009807,0.16293022,0.21503638,0.48056534
0.007820986,0.7401665,0.35752222,-0.2480717,-0.16450077,0.70610195,-0.5813548,-0.6166094,-0.32253692,-0.09283663,0.09537579,0.35199633
-0.08068335,0.5713894,0.3798297,-0.124540865,-0.22157227,0.6408932,-0.51555353,-0.66541684,-0.54011023,-0.28802714,0.032396547,0.28342617
-0.08068335,0.42511585,0.30733037,-0.07367524,-0.19044235,0.51047575,-0.49910313,-0.66541684,-0.56497574,-0.39571843,-0.049476475,0.17199972
-0.21576893,0.33510137,0.4244447,0.05712211,-0.32015026,0.5756844,-0.4168515,-0.6410131,-0.54632664,-0.40244913,-0.12505156,0.12914337
-0.32290578,0.15507244,0.46905968,0.19518597,-0.39797503,0.53221196,-0.35105014,-0.65321493,-0.5836249,-0.3889877,-0.23211628,0.017716909
-0.369487,0.15507244,0.5136747,0.2387851,-0.4446699,0.5756844,-0.25234812,-0.6084748,-0.52146107,-0.3486035,-0.2636059,-0.025139429
-0.44401696,-0.05871194,0.5025209,0.36958244,-0.48098812,0.4561351,-0.19477196,-0.63287854,-0.60227406,-0.3620649,-0.2384142,-0.11085211
-0.44401696,0.042554345,0.54713595,0.33324987,-0.50174135,0.5539482,-0.19477196,-0.58813834,-0.49659556,-0.28802714,-0.16283911,-0.085138306
-0.5232051,-0.50878423,0.37425283,0.57304496,-0.46542317,0.119223304,0.5290427,-0.15700555,-0.2665895,-0.34187275,-0.3958623,-0.3937039
-0.39277765,-2.6128724,-0.824775,1.1543665,0.1675515,-2.0544014,1.6558907,1.055047,0.5104581,-0.052452393,-0.6477793,-1.2079742
1.8803866,0.20007966,-2.152071,-1.5342457,2.0509105,-2.0000608,0.45501626,2.0433984,2.1826646,2.437909,1.9532635,1.4576898
6.0354323,4.7345586,-4.8791623,-6.228417,5.630849,-2.46739,-3.8631964,0.4124151,2.679975,5.641725,6.1287875,6.0433173
5.998167,3.879421,-5.25839,-5.9232235,5.7864985,-3.2498949,-6.0510907,-2.703129,-0.6644379,2.781175,4.2331123,5.2376184
1.7033778,0.27884233,-1.9011117,-1.4179814,1.8330011,-1.7174895,-4.2004285,-3.7687593,-4.4564304,-3.1216543,-0.9437818,0.8748436
-0.108632095,-1.3301663,-0.5347776,0.5149128,0.18830475,-1.1632152,-1.6999775,-1.8083253,-2.6163814,-2.3678153,-1.3153594,-0.6165568
0.021795357,-0.407518,-0.22804953,0.11525425,0.12085664,-0.4133147,-0.37572563,-0.30749527,-0.32253692,-0.14668228,-0.3895644,-0.07656703
-0.22508518,-0.37376255,0.084255405,0.29691726,-0.15931246,-0.09813914,-0.08784478,-0.23835135,-0.43443176,-0.34187275,-0.5155229,-0.20513605
-0.29961511,-0.6213023,0.05079416,0.4349811,-0.19044235,-0.25029287,0.043757897,-0.06345787,-0.17334378,-0.1736051,-0.32658514,-0.30799124
-0.34153825,-0.5537915,0.13444726,0.44224766,-0.25270215,-0.13074352,0.101334065,-0.079727024,-0.23550758,-0.27456573,-0.40216026,-0.31656253
-0.41606823,-0.6213023,0.190216,0.52217937,-0.31496197,-0.10900726,0.23293675,-0.022784967,-0.14847825,-0.20725863,-0.36437267,-0.37656137
-0.47662383,-0.5650433,0.29059973,0.5512454,-0.39797503,0.01054208,0.38098976,0.009753357,-0.11739635,-0.20052792,-0.37696853,-0.38513264
-0.43935883,-0.61005056,0.22925411,0.53671235,-0.35128018,-0.065534785,0.38098976,0.034157097,-0.092530824,-0.21398936,-0.38326648,-0.44513154
-0.44401696,-0.59879875,0.23483099,0.53671235,-0.35128018,-0.054666657,0.4221156,0.09516645,-0.024150642,-0.16014369,-0.36437267,-0.427989
-0.4626495,-0.70006496,0.20136975,0.5803115,-0.35128018,-0.14161164,0.43034074,0.13177207,-0.01171788,-0.1736051,-0.35807475,-0.43656024
-0.45799136,-0.74507225,0.17906225,0.60211104,-0.3357152,-0.18508412,0.46324143,0.21311787,0.06909507,-0.12649015,-0.33288306,-0.43656024
-0.43004256,-0.70006496,0.1679085,0.56577843,-0.32015026,-0.17421599,0.47969177,0.27005994,0.10017698,-0.13322085,-0.35807475,-0.43656024
-0.39277765,-0.70006496,0.11771664,0.5294459,-0.26826712,-0.21768849,0.50436723,0.33513656,0.14990802,-0.09283663,-0.339181,-0.43656024
-0.35085452,-0.6888132,0.084255405,0.49311325,-0.2319489,-0.25029287,0.51259243,0.4042805,0.22450458,-0.09283663,-0.35177687,-0.427989
-0.2902989,-0.6438059,0.028486665,0.4349811,-0.17487742,-0.2720291,0.4961421,0.5222319,0.3799141,-0.012068154,-0.32658514,-0.38513264
-0.26235014,-0.6438059,-0.004974579,0.42044806,-0.14374752,-0.3155016,0.5701686,0.6279814,0.46694347,0.088892445,-0.26990384,-0.35941884
-0.20645268,-0.61005056,-0.05516644,0.36231595,-0.08667603,-0.34810597,0.6606454,0.7784712,0.6099202,0.23023728,-0.21952043,-0.33370507
-0.1319227,-0.58754694,-0.13324268,0.29691726,-0.008851274,-0.4133147,0.72644675,0.9981048,0.8212771,0.3985049,-0.16283911,-0.2908487
-0.04807649,-0.58754694,-0.23362641,0.2315186,0.08453843,-0.51112777,0.7511223,1.2421423,1.0637159,0.53984976,-0.09985986,-0.2651349
0.07769284,-0.58754694,-0.384202,0.1297873,0.224623,-0.65241337,0.7922481,1.5146508,1.324804,0.72157884,-0.017986847,-0.2651349
0.22209466,-0.58754694,-0.5570851,0.020789515,0.3854608,-0.81543523,0.8662746,1.8074957,1.6045411,0.903308,0.0449924,-0.2651349
0.3991033,-0.58754694,-0.76900625,-0.11727436,0.58261687,-1.0327977,0.8991753,2.0962734,1.8531965,1.0715755,0.0701841,-0.2651349
0.613377,-0.6663096,-1.0645806,-0.26260474,0.8368443,-1.3588415,0.9074004,2.3281088,2.0459042,1.1456134,0.089077875,-0.2651349
0.7903857,-0.7900795,-1.3378474,-0.364336,1.0651302,-1.6848851,0.8415991,2.470464,2.1329336,1.1119599,0.11426957,-0.2651349
0.89752257,-0.90259755,-1.5218842,-0.40793514,1.2104031,-1.9239839,0.7757978,2.4948678,2.0521207,1.0783063,0.12686542,-0.25656366
0.9860268,-0.936353,-1.6445755,-0.45880076,1.3141694,-2.0544014,0.7099964,2.344378,1.8718455,1.0244607,0.09537579,-0.20513605
1.0000012,-0.8688421,-1.6278449,-0.49513337,1.3141694,-2.0000608,0.6441951,1.994591,1.6107576,0.8898465,0.06388617,-0.15370843
0.80901825,-0.8350867,-1.3880392,-0.35706946,1.1014485,-1.760962,0.5866189,1.5065162,1.2999384,0.6677332,0.038694475,-0.11085211
0.538847,-0.74507225,-1.0143887,-0.18267304,0.7745846,-1.3479732,0.5208176,0.98997027,0.8958736,0.41196635,0.007204851,-0.059424493
0.310599,-0.49753243,-0.61843073,-0.08094175,0.45809725,-0.8371715,0.45501626,0.5629048,0.5539728,0.2571601,-0.017986847,-0.025139429
0.054402217,-0.3062517,-0.21689577,0.05712211,0.13123327,-0.3589741,0.3398639,0.1968487,0.280452,0.16293022,-0.049476475,0.026288174
-0.108632095,-0.18248183,0.03964041,0.13705382,-0.07629939,-0.043798532,0.1918109,-0.07159245,0.038013168,0.055238914,-0.062072318,0.03485944
-0.18316208,-0.047460128,0.19579288,0.15885338,-0.19044235,0.16269581,0.101334065,-0.22614948,-0.061448924,-0.01879886,-0.062072318,0.043430712
-0.28098264,-0.024956506,0.32963783,0.22425205,-0.30458534,0.3039814,0.08488373,-0.28715882,-0.092530824,-0.106298044,-0.08726402,0.06914451
-0.2902989,-0.024956506,0.3352147,0.2387851,-0.31496197,0.31484953,0.06020823,-0.30749527,-0.14226188,-0.20052792,-0.09356194,0.08628705
-0.28564078,0.008798919,0.34636846,0.21698554,-0.32015026,0.34745386,0.035532728,-0.32783175,-0.19199292,-0.20052792,-0.09356194,0.06914451
-0.34619638,0.042554345,0.43559843,0.26058465,-0.39797503,0.445267,0.010857226,-0.31156257,-0.23550758,-0.20052792,-0.12505156,0.03485944
-0.37414512,0.020050727,0.45790595,0.28238422,-0.4187283,0.4561351,0.019082393,-0.31156257,-0.22929122,-0.18706651,-0.12505156,0.03485944
-0.32756385,0.1100652,0.44675222,0.22425205,-0.39278668,0.4887395,0.051983062,-0.303428,-0.21064207,-0.16014369,-0.13134949,0.009145642
-0.33688012,0.098813385,0.45232907,0.2315186,-0.39797503,0.4887395,0.043757897,-0.28715882,-0.21685845,-0.1736051,-0.15654118,-0.007996892
-0.41606823,-0.09246736,0.45232907,0.3550494,-0.43948156,0.3909264,0.0684334,-0.29529342,-0.21685845,-0.13995157,-0.15654118,-0.007996892
-0.4114101,-0.09246736,0.44675222,0.3550494,-0.43429324,0.38005826,0.101334065,-0.303428,-0.21685845,-0.13322085,-0.1376474,-0.033710696
-0.369487,-0.036208317,0.4244447,0.29691726,-0.40316334,0.4017945,0.0931089,-0.31562984,-0.22929122,-0.13322085,-0.12505156,-0.059424493
-0.35085452,-0.013704699,0.41329095,0.2751177,-0.38241008,0.3909264,0.0684334,-0.32783175,-0.24794035,-0.13322085,-0.12505156,-0.085138306
-0.3135895,0.042554345,0.39656034,0.2315186,-0.35646847,0.4017945,0.043757897,-0.34003362,-0.2665895,-0.12649015,-0.09985986,-0.11085211
-0.28564078,0.07630978,0.3798297,0.19518597,-0.3357152,0.4017945,0.019082393,-0.35223547,-0.27280587,-0.14668228,-0.08726402,-0.1365659
-0.25303394,0.12131701,0.3630991,0.15885338,-0.31496197,0.4126626,-0.0055931094,-0.35223547,-0.34740245,-0.22072005,-0.09985986,-0.12799463
-0.26700827,0.14382061,0.39656034,0.15885338,-0.33052692,0.4561351,-0.022043444,-0.34816816,-0.41578263,-0.24764289,-0.118753634,-0.085138306
-0.32290578,0.14382061,0.45790595,0.2024525,-0.39278668,0.51047575,-0.046718944,-0.39290836,-0.39091712,-0.267835,-0.14394534,-0.10228084
-0.32756385,0.17757605,0.48021343,0.19518597,-0.4083517,0.5539482,-0.07139444,-0.41731212,-0.45308092,-0.2947578,-0.15654118,-0.067995764
-0.3135895,0.21133149,0.48021343,0.17338642,-0.40316334,0.56481636,-0.07139444,-0.44171587,-0.50281197,-0.30821922,-0.1880308,-0.050853226
-0.33688012,0.18882786,0.5025209,0.2024525,-0.4239166,0.5756844,-0.08784478,-0.48645604,-0.4903792,-0.33514208,-0.17543496,-0.050853226
-0.36482885,0.14382061,0.5136747,0.2387851,-0.43948156,0.56481636,-0.11252028,-0.4945906,-0.49659556,-0.35533416,-0.15024325,-0.01656816
-0.36017078,0.14382061,0.5080978,0.2387851,-0.43429324,0.56481636,-0.11252028,-0.5149271,-0.49659556,-0.382257,-0.15654118,-0.007996892
-0.37414512,0.1325688,0.5080978,0.24605161,-0.4446699,0.5539482,-0.07961961,-0.53526354,-0.49659556,-0.40244913,-0.15654118,-0.007996892
-0.38811952,0.08756158,0.5025209,0.2751177,-0.4550465,0.53221196,-0.07139444,-0.54746544,-0.49659556,-0.40244913,-0.15654118,-0.007996892
-0.3974357,0.08756158,0.5136747,0.28238422,-0.46023482,0.5430801,-0.07139444,-0.56780183,-0.49659556,-0.40244913,-0.15654118,-0.01656816
-0.40209383,0.12131701,0.5359822,0.26785117,-0.47579977,0.5756844,-0.030268608,-0.57593644,-0.49659556,-0.40244913,-0.12505156,0.009145642
-0.36017078,0.21133149,0.5304053,0.209719,-0.4498582,0.61915696,-0.030268608,-0.57593644,-0.49659556,-0.382257,-0.12505156,0.03485944
-0.33222198,0.31259775,0.5527128,0.15885338,-0.4446699,0.68436563,-0.022043444,-0.58813834,-0.49659556,-0.3620649,-0.12505156,0.03485944
-0.32290578,0.357605,0.56386656,0.13705382,-0.4446699,0.72783816,0.010857226,-0.6003402,-0.49659556,-0.3755263,-0.12505156,0.026288174
-0.31824765,0.38010862,0.56386656,0.122520775,-0.43948156,0.72783816,0.035532728,-0.5922056,-0.47173005,-0.33514208,-0.12505156,0.03485944
-0.33688012,0.3688568,0.5861741,0.14432034,-0.46023482,0.7495744,0.051983062,-0.56780183,-0.42821538,-0.34187275,-0.1124557,0.026288174
-0.3135895,0.44761947,0.59732777,0.10072123,-0.4550465,0.79304695,0.08488373,-0.527129,-0.39091712,-0.32841134,-0.08726402,0.077715784
-0.35085452,0.40261224,0.6196353,0.14432034,-0.4861764,0.79304695,0.101334065,-0.4945906,-0.34118605,-0.267835,-0.07466817,0.16342846
-0.2902989,0.52638215,0.6140584,0.05712211,-0.4498582,0.8473875,0.06020823,-0.457985,-0.31010416,-0.20725863,-0.055774394,0.21485604
-0.0899996,0.92019546,0.5694434,-0.22627214,-0.32015026,0.9995413,0.010857226,-0.40917754,-0.23550758,-0.106298044,0.038694475,0.31771126
-0.071367115,0.84143275,0.5080978,-0.21900563,-0.27864376,0.90172815,-0.03849378,-0.36850464,-0.20442568,-0.012068154,0.1709509,0.30914
0.08700909,1.1677352,0.47463655,-0.44426772,-0.16968909,1.0212775,-0.09606995,-0.31156257,-0.14847825,0.21004516,0.31580317,0.48056534
0.19880405,1.2915052,0.40771407,-0.5750651,-0.081487715,1.0212775,-0.40040115,-0.46205232,-0.19820932,0.07543103,0.23393014,0.5319929
0.017137233,0.7964256,0.37425283,-0.26987126,-0.16450077,0.7387063,-0.58958,-0.65728223,-0.42199904,-0.22745077,0.082779944,0.26628366
0.031111602,0.7289147,0.32406098,-0.26260474,-0.13337088,0.6626294,-0.5484542,-0.6410131,-0.5276775,-0.30148855,0.038694475,0.20628478
-0.0061533833,0.5713894,0.29059973,-0.17540652,-0.1385592,0.5539482,-0.5731297,-0.6450804,-0.56497574,-0.43610263,-0.024284773,0.12914337
-0.22974329,0.51513034,0.5304053,0.0135229975,-0.37203342,0.7604426,-0.31814945,-0.62474394,-0.57740855,-0.46302548,-0.068370245,0.09485832
-0.31824765,0.33510137,0.54713595,0.14432034,-0.43429324,0.68436563,-0.17832161,-0.6410131,-0.6395723,-0.46302548,-0.14394534,-0.007996892
-0.36482885,0.34635317,0.6084815,0.1661199,-0.4861764,0.7604426,-0.12897062,-0.5922056,-0.56497574,-0.40244913,-0.14394534,-0.01656816
-0.4347007,0.08756158,0.56386656,0.30418378,-0.50692964,0.5974207,-0.17009646,-0.6410131,-0.56497574,-0.41591054,-0.18173288,-0.17942224
-0.46730757,0.2225833,0.66425025,0.28965074,-0.5691895,0.7495744,-0.13719578,-0.57186913,-0.42199904,-0.32841134,-0.118753634,-0.25656366
-0.5930769,-0.7788276,0.32406098,0.71110886,-0.48098812,-0.065534785,0.7346719,-0.043121416,-0.24172397,-0.382257,-0.42105404,-0.6508419
-0.32290578,-2.702887,-0.9530431,1.1253005,0.26612952,-2.2282913,1.6805662,1.2340077,0.5601892,0.028316086,-0.58480006,-1.1908318
2.4393613,0.90894365,-2.4699528,-2.195499,2.5074823,-1.9674563,0.06020823,2.0027256,2.3567233,2.9157891,2.6082478,2.1605337
6.440689,4.8358245,-5.3141584,-6.5844765,6.056291,-2.8369062,-4.348481,0.021955227,2.4748344,5.628264,6.324023,6.343312
5.504406,3.4293485,-4.890316,-5.4000335,5.3403034,-3.108609,-6.059316,-3.0691853,-1.3544562,1.7715691,3.483659,4.697629
1.2142749,0.008798919,-1.4493849,-0.9456576,1.3504877,-1.402314,-3.7151437,-3.7077498,-4.5372434,-3.4851127,-1.258678,0.42913774
-0.14589708,-1.1838928,-0.4065095,0.5003798,0.11048,-0.96758896,-1.3380702,-1.5602206,-2.218533,-1.9774344,-1.0571444,-0.6936983
-0.108632095,-0.38501436,-0.060743313,0.209719,-0.029604541,-0.23942474,-0.39217597,-0.2586878,-0.22929122,-0.22072005,-0.20692457,-0.09370956
-0.40209383,-0.58754694,0.190216,0.5003798,-0.31496197,-0.08727102,-0.07139444,-0.2586878,-0.40956625,-0.52360183,-0.42735195,-0.15370843
-0.4253845,-0.5312879,0.2515616,0.5003798,-0.35128018,-0.011194166,0.0931089,-0.10006348,-0.18577653,-0.2947578,-0.2950955,-0.23084983
-0.49525636,-0.50878423,0.34636846,0.5512454,-0.43429324,0.08661894,0.0931089,-0.12853451,-0.24794035,-0.40917984,-0.37696853,-0.31656253
-0.49525636,-0.57629514,0.31290722,0.57304496,-0.4187283,0.021410203,0.14245991,-0.05939058,-0.1360455,-0.30821922,-0.32658514,-0.30799124
-0.51388884,-0.46377704,0.3854066,0.5512454,-0.46542317,0.15182768,0.17536058,-0.03498684,-0.12361273,-0.33514208,-0.36437267,-0.30799124
-0.49525636,-0.50878423,0.34079158,0.5512454,-0.43429324,0.08661894,0.20826124,-0.006515805,-0.08009807,-0.2947578,-0.38326648,-0.3937039
-0.45799136,-0.45252523,0.32406098,0.5003798,-0.40316334,0.097487055,0.24938707,0.04635897,-0.024150642,-0.24764289,-0.37067062,-0.38513264
-0.4347007,-0.45252523,0.29059973,0.48584673,-0.37722176,0.064882696,0.2987381,0.054493546,-0.01171788,-0.24764289,-0.38326648,-0.40227517
-0.3834614,-0.39626616,0.2571385,0.42771462,-0.3357152,0.05401457,0.35631424,0.15617579,0.06909507,-0.1803358,-0.37067062,-0.3937039
-0.37414512,-0.4300216,0.23483099,0.42771462,-0.31496197,0.021410203,0.38921493,0.26599264,0.11882611,-0.18706651,-0.38326648,-0.40227517
-0.36017078,-0.47502884,0.19579288,0.42771462,-0.2890204,-0.032930408,0.43034074,0.31073284,0.20585544,-0.12649015,-0.339181,-0.38513264
-0.33222198,-0.46377704,0.1679085,0.41318157,-0.26307878,-0.054666657,0.46324143,0.34733844,0.26801926,-0.13995157,-0.3139893,-0.3508476
-0.29961511,-0.49753243,0.11771664,0.391382,-0.22157227,-0.11987539,0.45501626,0.46122256,0.3177503,-0.11975944,-0.28249967,-0.3508476
-0.25303394,-0.4300216,0.089832276,0.34051636,-0.18006572,-0.11987539,0.54549307,0.59951043,0.45451066,0.048508205,-0.25730798,-0.3508476
-0.2902989,-0.6438059,0.028486665,0.4349811,-0.17487742,-0.2720291,0.6359699,0.75813466,0.67208403,0.22350655,-0.23211628,-0.3508476
-0.20179456,-0.7338205,-0.11651205,0.39864853,-0.055546124,-0.46765533,0.6195196,0.9248936,0.7839788,0.31773645,-0.20062667,-0.35941884
-0.015469629,-0.4300216,-0.19458827,0.15158686,0.08453843,-0.39157844,0.7182216,1.1689311,0.98911935,0.44561988,-0.14394534,-0.31656253
0.0916672,-0.52003604,-0.3674714,0.10072123,0.224623,-0.6089409,0.7757978,1.4943142,1.293722,0.66100246,-0.07466817,-0.30799124
0.27799213,-0.5537915,-0.6128538,-0.03734264,0.4425323,-0.8589077,0.8333739,1.8196975,1.585892,0.8831158,-0.024284773,-0.30799124
0.47829142,-0.49753243,-0.81919813,-0.21173911,0.65006495,-1.0327977,0.9156256,2.0922058,1.8656292,1.064845,0.007204851,-0.2651349
0.61803514,-0.7788276,-1.1259261,-0.22627214,0.8679742,-1.4783908,0.84982425,2.3037052,2.0210385,1.1456134,0.038694475,-0.2651349
0.762437,-0.88009393,-1.3490012,-0.30620384,1.0547537,-1.7392257,0.8004733,2.470464,2.089419,1.0984985,0.07648202,-0.25656366
0.9068388,-0.936353,-1.5497687,-0.4006686,1.2259681,-1.9565881,0.7428971,2.4826658,2.027255,1.0244607,0.11426957,-0.22227857
0.9394457,-1.0826265,-1.6557293,-0.37886906,1.2934163,-2.1304781,0.6853209,2.3077724,1.9215765,0.97061497,0.11426957,-0.20513605
0.86957383,-1.0263674,-1.5497687,-0.34253645,1.2052149,-2.0000608,0.6524203,1.9335816,1.6791378,0.86292374,0.089077875,-0.17942224
0.7577788,-0.8688421,-1.3378474,-0.30620384,1.0443771,-1.7174895,0.6112944,1.4536414,1.2812892,0.6138875,0.09537579,-0.14513716
0.538847,-0.72256863,-1.0032349,-0.18267304,0.76939625,-1.326237,0.5948441,0.96963376,0.9518211,0.41869703,0.0701841,-0.1365659
0.22209466,-0.52003604,-0.5236238,-0.001010042,0.36470753,-0.76109457,0.43856594,0.5303665,0.5788383,0.29081362,0.06388617,-0.10228084
0.02645348,-0.14872642,-0.09978143,0.028056035,0.06378516,-0.16334789,0.24116191,0.17651226,0.24315374,0.15619951,0.06388617,-0.09370956
-0.03410212,0.17757605,0.12887038,-0.03007612,-0.07629939,0.20616831,0.20003608,-0.075659744,0.025580406,0.07543103,0.026098626,-0.09370956
-0.14123896,0.30134594,0.32406098,0.0135229975,-0.2319489,0.4561351,0.17536058,-0.20988032,-0.086314455,-0.0053374474,-0.011688923,-0.059424493
-0.1691877,0.38010862,0.39098343,0.0135229975,-0.27864376,0.56481636,0.15068507,-0.27902424,-0.16091102,-0.079375215,-0.055774394,-0.042281955
-0.2111108,0.3688568,0.43002155,0.04258908,-0.32015026,0.5974207,0.10955924,-0.31969714,-0.22929122,-0.14668228,-0.09985986,-0.067995764
-0.32290578,0.3688568,0.5694434,0.1297873,-0.4446699,0.72783816,0.0931089,-0.31562984,-0.22307481,-0.23418146,-0.1376474,-0.09370956
-0.34153825,0.3688568,0.59732777,0.14432034,-0.47061145,0.7495744,0.12600957,-0.2993607,-0.20442568,-0.23418146,-0.17543496,-0.09370956
-0.35551265,0.3688568,0.6084815,0.15885338,-0.48098812,0.7713106,0.14245991,-0.29122612,-0.18577653,-0.20052792,-0.1880308,-0.11085211
-0.35085452,0.41386408,0.62521213,0.14432034,-0.49136472,0.803915,0.17536058,-0.27495694,-0.17334378,-0.19379722,-0.1880308,-0.14513716
-0.36017078,0.42511585,0.6419428,0.14432034,-0.50174135,0.8256513,0.15891023,-0.27088967,-0.14847825,-0.16014369,-0.1880308,-0.1365659
-0.36482885,0.42511585,0.64751965,0.14432034,-0.50692964,0.8473875,0.12600957,-0.28715882,-0.17334378,-0.1736051,-0.1880308,-0.11085211
-0.31824765,0.4701231,0.6196353,0.09345471,-0.46542317,0.8256513,0.13423473,-0.31969714,-0.22929122,-0.20052792,-0.1880308,-0.09370956
-0.31824765,0.49262673,0.62521213,0.09345471,-0.46542317,0.8473875,0.13423473,-0.33189902,-0.25415674,-0.20052792,-0.15654118,-0.09370956
-0.31824765,0.4701231,0.6084815,0.10072123,-0.46023482,0.81478316,0.13423473,-0.33596632,-0.27280587,-0.22072005,-0.15654118,-0.09370956
-0.31824765,0.42511585,0.5917509,0.107987754,-0.4550465,0.7821788,0.12600957,-0.35223547,-0.291455,-0.24091217,-0.15024325,-0.09370956
-0.31824765,0.42511585,0.5917509,0.107987754,-0.4550465,0.7821788,0.101334065,-0.35223547,-0.31632054,-0.23418146,-0.12505156,-0.10228084
-0.32756385,0.42511585,0.6029047,0.11525425,-0.46542317,0.79304695,0.07665857,-0.38884106,-0.3287533,-0.2611043,-0.118753634,-0.1365659
-0.35551265,0.42511585,0.63078904,0.13705382,-0.49655303,0.81478316,0.051983062,-0.429514,-0.38470072,-0.27456573,-0.15024325,-0.1365659
-0.369487,0.42511585,0.6586734,0.15158686,-0.5173063,0.8473875,0.02730756,-0.43764856,-0.4655137,-0.32841134,-0.20692457,-0.1365659
-0.40675196,0.38010862,0.675404,0.19518597,-0.5380596,0.8365194,0.010857226,-0.457985,-0.4655137,-0.3687956,-0.17543496,-0.1365659
-0.38811952,0.3688568,0.64751965,0.18065295,-0.5173063,0.803915,-0.0055931094,-0.4742542,-0.4592973,-0.3620649,-0.15654118,-0.1365659
-0.38811952,0.3688568,0.64751965,0.18065295,-0.5173063,0.803915,-0.06316928,-0.5067925,-0.4903792,-0.44283336,-0.25101003,-0.17085098
-0.40209383,0.31259775,0.6419428,0.209719,-0.5224947,0.7713106,-0.12074546,-0.5149271,-0.5276775,-0.5101404,-0.2950955,-0.17942224
-0.38811952,0.31259775,0.6196353,0.2024525,-0.50692964,0.7495744,-0.17009646,-0.53526354,-0.55254304,-0.496679,-0.30139345,-0.17942224
-0.3834614,0.32384956,0.6196353,0.19518597,-0.50174135,0.7604426,-0.22767262,-0.5637346,-0.5587594,-0.50340974,-0.33288306,-0.17942224
-0.35551265,0.3688568,0.6084815,0.15885338,-0.48098812,0.7713106,-0.2770236,-0.58813834,-0.56497574,-0.52360183,-0.34547892,-0.18799351
-0.33688012,0.3688568,0.5861741,0.13705382,-0.46023482,0.7387063,-0.31814945,-0.5962729,-0.5898413,-0.53706324,-0.32028723,-0.22227857
-0.34619638,0.3688568,0.59732777,0.15158686,-0.47061145,0.7495744,-0.31814945,-0.5962729,-0.5898413,-0.53706324,-0.3139893,-0.22227857
-0.33222198,0.38010862,0.5861741,0.13705382,-0.4550465,0.7495744,-0.31814945,-0.6084748,-0.60227406,-0.53706324,-0.3139893,-0.23942111
-0.35551265,0.357605,0.6029047,0.15885338,-0.47579977,0.7495744,-0.31814945,-0.62067664,-0.62713957,-0.53706324,-0.3139893,-0.27370617
-0.4347007,0.39136046,0.7144422,0.21698554,-0.5743778,0.87999195,-0.31814945,-0.6125421,-0.6209232,-0.53033257,-0.3139893,-0.25656366
-0.4719657,0.34635317,0.74232656,0.26058465,-0.6055077,0.89086,-0.30169913,-0.6003402,-0.60227406,-0.496679,-0.30139345,-0.23942111
-0.44401696,0.39136046,0.7255959,0.22425205,-0.5847544,0.89086,-0.2605733,-0.58813834,-0.55254304,-0.46302548,-0.27620175,-0.18799351
-0.4719657,0.34635317,0.73674965,0.25331816,-0.6055077,0.89086,-0.24412295,-0.57593644,-0.5090284,-0.43610263,-0.25730798,-0.15370843
-0.44401696,0.39136046,0.7255959,0.22425205,-0.5847544,0.89086,-0.21122229,-0.56780183,-0.47173005,-0.40244913,-0.23211628,-0.11085211
-0.33222198,0.69515926,0.74232656,0.035322558,-0.53287125,1.0538819,-0.19477196,-0.55153275,-0.42821538,-0.3687956,-0.21322252,-0.067995764
-0.27632454,0.85268456,0.7534803,-0.066408716,-0.50692964,1.1408268,-0.23589778,-0.56780183,-0.37848434,-0.34187275,-0.17543496,-0.042281955
-0.18782018,1.0439653,0.74232656,-0.18993956,-0.4498582,1.2277719,-0.22767262,-0.57186913,-0.2976714,-0.28802714,-0.106157795,0.009145642
-0.17384583,0.9764545,0.6921347,-0.18267304,-0.4187283,1.1408268,-0.2852488,-0.58000374,-0.30388775,-0.2812964,-0.049476475,0.00057437306
-0.03410212,1.2690015,0.66982716,-0.38613555,-0.33052692,1.2603762,-0.25234812,-0.56780183,-0.30388775,-0.2947578,0.013502777,0.21485604
0.08700909,1.4602823,0.6196353,-0.545999,-0.24232551,1.3147168,-0.4086263,-0.58813834,-0.3287533,-0.30821922,0.051290326,0.3348538
-0.010811507,1.1452316,0.58059716,-0.364336,-0.27864376,1.1190907,-0.6142555,-0.681686,-0.49659556,-0.30821922,0.026098626,0.09485832
-0.05739274,1.0327135,0.57502025,-0.2916708,-0.299397,1.0538819,-0.51555353,-0.7020225,-0.60227406,-0.40244913,-0.049476475,-0.007996892
-0.14589708,0.830181,0.5861741,-0.15360695,-0.35646847,0.9669368,-0.44975215,-0.6979552,-0.5898413,-0.46302548,-0.106157795,-0.09370956
-0.3135895,0.7739219,0.75905716,-0.008276561,-0.52768296,1.1082225,-0.34282497,-0.6898206,-0.5836249,-0.496679,-0.17543496,-0.17085098
-0.4114101,0.56013757,0.77021086,0.13705382,-0.58994275,1.0212775,-0.3345998,-0.710157,-0.60227406,-0.56398606,-0.2887976,-0.2651349
-0.4347007,0.6051448,0.8148259,0.14432034,-0.62107265,1.0864862,-0.2770236,-0.67355144,-0.5587594,-0.51687115,-0.30769137,-0.27370617
-0.45333323,0.357605,0.7144422,0.2315186,-0.5847544,0.8691238,-0.30169913,-0.6979552,-0.6333559,-0.543794,-0.32658514,-0.35941884
-0.4719657,0.51513034,0.82040274,0.19518597,-0.6470142,1.0430137,-0.12897062,-0.5637346,-0.47794643,-0.4562948,-0.28249967,-0.29941997
-0.6629487,-0.8463385,0.37425283,0.79104054,-0.5432479,-0.043798532,0.8086984,0.05856084,-0.1360455,-0.44956407,-0.67926896,-0.91655123
-0.19247831,-2.4215918,-0.9697737,0.9363709,0.34395427,-2.11961,1.6147648,1.4373722,1.0015521,0.3985049,-0.47143742,-1.1479753
2.7887206,1.9553618,-2.3639922,-2.8058865,2.652755,-1.3588415,-0.4086263,2.0149274,2.909981,3.8244345,3.5592344,2.9576614
6.184492,5.3871636,-4.7341638,-6.55541,5.6412253,-2.0109289,-4.5212097,0.034157097,2.9783614,6.6782537,7.382075,7.1918674
4.7078667,3.3730896,-3.964555,-4.76058,4.4634776,-2.2282913,-5.4342036,-2.703129,-1.0436372,2.1821423,3.653703,4.77477
0.7670951,0.06505796,-0.88612056,-0.6113977,0.8368443,-0.82630336,-3.2298586,-3.1912038,-4.170477,-3.4110749,-1.4287219,0.13771464
-0.26700827,-0.90259755,-0.1276658,0.5003798,-0.08667603,-0.5546003,-1.2393681,-1.299914,-1.907714,-1.7418597,-1.0256548,-0.6336994
-0.108632095,-0.05871194,0.09540915,0.10072123,-0.10224098,0.064882696,-0.3839508,-0.29122612,-0.2976714,-0.106298044,-0.2384142,-0.20513605
-0.30427325,-0.18248183,0.26829222,0.29691726,-0.2890204,0.16269581,-0.17832161,-0.27088967,-0.43443176,-0.43610263,-0.47143742,-0.44513154
-0.33688012,-0.1374746,0.3352147,0.30418378,-0.34090355,0.2605089,-0.022043444,-0.10819806,-0.18577653,-0.30148855,-0.35807475,-0.46227404
-0.42072636,-0.28374812,0.3630991,0.42044806,-0.40316334,0.21703641,0.06020823,-0.15293825,-0.28523862,-0.46302548,-0.43994778,-0.54798675
-0.43004256,-0.39626616,0.3184841,0.46404716,-0.38241008,0.10835518,0.15891023,-0.08379432,-0.1671274,-0.3620649,-0.3895644,-0.5394155
-0.41606823,-0.32875535,0.3352147,0.42771462,-0.3875984,0.17356393,0.20826124,-0.075659744,-0.17956015,-0.42264125,-0.42105404,-0.57370055
-0.4114101,-0.39626616,0.2961766,0.44224766,-0.36684513,0.097487055,0.25761223,-0.026852256,-0.12982911,-0.39571843,-0.40216026,-0.59941435
-0.40675196,-0.34000716,0.3184841,0.42044806,-0.37203342,0.15182768,0.29051292,0.017887937,-0.086314455,-0.39571843,-0.42735195,-0.6079856
-0.37880325,-0.38501436,0.26271537,0.42044806,-0.33052692,0.064882696,0.30696324,0.04635897,-0.055232543,-0.3755263,-0.44624573,-0.6508419
-0.33222198,-0.3062517,0.24598475,0.3550494,-0.299397,0.08661894,0.3398639,0.13177207,0.006931263,-0.31494993,-0.43364984,-0.6508419
-0.30893138,-0.31750354,0.21810035,0.34051636,-0.2734554,0.05401457,0.35631424,0.1968487,0.025580406,-0.30148855,-0.44624573,-0.6508419
-0.34153825,-0.47502884,0.17348537,0.42044806,-0.2734554,-0.054666657,0.38098976,0.29853097,0.13125888,-0.23418146,-0.43364984,-0.6508419
-0.35551265,-0.54253966,0.15675476,0.45678064,-0.2734554,-0.10900726,0.39744008,0.37987676,0.19963908,-0.1736051,-0.43364984,-0.6508419
-0.30893138,-0.52003604,0.11213976,0.41318157,-0.22676057,-0.14161164,0.46324143,0.481559,0.33018306,-0.07264451,-0.38326648,-0.6336994
-0.27632454,-0.54253966,0.06752478,0.391382,-0.18525404,-0.19595224,0.50436723,0.6279814,0.4855926,0.03504679,-0.339181,-0.57370055
-0.22042705,-0.52003604,0.0006022953,0.34051636,-0.12299425,-0.25029287,0.5866189,0.790673,0.62856936,0.20331445,-0.30769137,-0.5137017
-0.15521333,-0.54253966,-0.07747393,0.29691726,-0.050357807,-0.33723783,0.6853209,1.0021721,0.85235894,0.33119786,-0.21322252,-0.46227404
-0.08068335,-0.57629514,-0.19458827,0.25331816,0.04822021,-0.46765533,0.7182216,1.2624788,1.1134471,0.52638835,-0.08096609,-0.40227517
0.054402217,-0.61005056,-0.3674714,0.15885338,0.20386972,-0.65241337,0.8333739,1.5593909,1.3994005,0.7283096,0.007204851,-0.3508476
0.16619718,-0.6663096,-0.52920073,0.0861882,0.33876595,-0.8371715,0.9238508,1.8359667,1.6729213,0.9436922,0.06388617,-0.30799124
0.38512897,-0.6775614,-0.79131377,-0.08094175,0.58780515,-1.0980064,0.94852626,2.1003406,1.9464421,1.1658055,0.13316335,-0.2651349
0.58077013,-0.76757586,-1.0757344,-0.19720608,0.82127947,-1.413182,0.9156256,2.3484452,2.126717,1.2331126,0.13946126,-0.23084983
0.7577788,-0.81258315,-1.3043861,-0.3280034,1.028812,-1.6631489,0.85804945,2.4541948,2.176448,1.2398432,0.10797165,-0.18799351
0.89752257,-0.91384935,-1.533038,-0.4006686,1.2155914,-1.9239839,0.82514876,2.4623294,2.13915,1.1859976,0.089077875,-0.15370843
0.8555994,-1.0151156,-1.5274612,-0.34253645,1.1896499,-1.9674563,0.7675726,2.3037052,1.9340093,1.0984985,0.0701841,-0.11085211
0.88354814,-0.8575904,-1.4828461,-0.41520163,1.1844616,-1.8479071,0.72644675,1.9457835,1.6604885,0.9369615,0.0449924,-0.09370956
0.7670951,-0.76757586,-1.2988093,-0.34980297,1.0340004,-1.6305444,0.6853209,1.4861797,1.2999384,0.72157884,0.0198007,-0.09370956
0.5062401,-0.5650433,-0.88612056,-0.21173911,0.6967598,-1.1306108,0.6030692,0.96556646,0.8896573,0.52638835,0.00090692664,-0.067995764
0.273334,-0.28374812,-0.46227822,-0.11727436,0.36989588,-0.5872047,0.5290427,0.5385011,0.5477564,0.2706215,-0.011688923,-0.042281955
0.017137233,-0.047460128,-0.049589563,0.006256477,0.03265526,-0.065534785,0.39744008,0.24158889,0.24937011,0.07543103,-0.030582696,-0.059424493
-0.09465773,0.14382061,0.18463914,0.028056035,-0.14374752,0.24964078,0.24938707,-0.014650387,0.006931263,-0.0053374474,-0.049476475,-0.085138306
-0.18316208,0.25633872,0.34636846,0.05712211,-0.26307878,0.4561351,0.20003608,-0.19361115,-0.1671274,-0.11302875,-0.062072318,-0.09370956
-0.23905954,0.34635317,0.45790595,0.071655154,-0.34609187,0.6082888,0.17536058,-0.2668224,-0.25415674,-0.25437358,-0.08096609,-0.09370956
-0.28098264,0.31259775,0.49136716,0.122520775,-0.3875984,0.6300251,0.15068507,-0.2993607,-0.28523862,-0.27456573,-0.09985986,-0.09370956
-0.33688012,0.26759052,0.5359822,0.17338642,-0.43429324,0.6408932,0.10955924,-0.31562984,-0.27280587,-0.2611043,-0.118753634,-0.09370956
-0.35085452,0.23383509,0.5359822,0.19518597,-0.4446699,0.6300251,0.0931089,-0.31156257,-0.30388775,-0.27456573,-0.13134949,-0.07656703
-0.37414512,0.17757605,0.5359822,0.2315186,-0.46023482,0.6082888,0.13423473,-0.31156257,-0.37226796,-0.2611043,-0.15654118,-0.050853226
-0.40675196,0.14382061,0.55828965,0.26785117,-0.4861764,0.61915696,0.13423473,-0.31156257,-0.3349697,-0.27456573,-0.15024325,-0.050853226
-0.43004256,0.098813385,0.56386656,0.30418378,-0.50692964,0.5974207,0.13423473,-0.31156257,-0.2976714,-0.24091217,-0.12505156,-0.050853226
-0.43004256,0.08756158,0.55828965,0.30418378,-0.50174135,0.5756844,0.13423473,-0.31156257,-0.2665895,-0.23418146,-0.12505156,-0.050853226
-0.4114101,0.08756158,0.5359822,0.28965074,-0.48098812,0.56481636,0.13423473,-0.31156257,-0.22307481,-0.22745077,-0.106157795,-0.050853226
-0.40209383,0.08756158,0.52482843,0.28238422,-0.47061145,0.5430801,0.1177844,-0.31156257,-0.22929122,-0.21398936,-0.09356194,-0.050853226
-0.38811952,0.08756158,0.5080978,0.2751177,-0.4550465,0.53221196,0.08488373,-0.31156257,-0.27280587,-0.18706651,-0.09356194,-0.050853226
-0.369487,0.098813385,0.49136716,0.25331816,-0.43429324,0.5213438,0.0931089,-0.31156257,-0.31010416,-0.24091217,-0.118753634,-0.050853226
-0.32756385,0.17757605,0.48021343,0.19518597,-0.4083517,0.5539482,0.0931089,-0.31156257,-0.34118605,-0.3687956,-0.15654118,-0.050853226
-0.28098264,0.2450869,0.45790595,0.14432034,-0.37203342,0.56481636,0.0931089,-0.33596632,-0.37226796,-0.3687956,-0.19432873,-0.050853226
-0.28564078,0.2225833,0.45232907,0.15158686,-0.37203342,0.5430801,0.08488373,-0.36443734,-0.3971335,-0.3889877,-0.23211628,-0.067995764
-0.3135895,0.15507244,0.45232907,0.19518597,-0.3875984,0.51047575,0.06020823,-0.40104297,-0.41578263,-0.40917984,-0.25101003,-0.10228084
-0.33688012,0.098813385,0.45232907,0.2315186,-0.40316334,0.4887395,0.035532728,-0.43764856,-0.44064817,-0.40917984,-0.25101003,-0.09370956
-0.34619638,0.06505796,0.44675222,0.25331816,-0.40316334,0.46700326,0.010857226,-0.46205232,-0.47173005,-0.4697562,-0.25101003,-0.09370956
-0.38811952,-0.0024528895,0.46348283,0.30418378,-0.4291049,0.445267,-0.013818276,-0.47832146,-0.56497574,-0.496679,-0.25101003,-0.09370956
-0.41606823,-0.013704699,0.49136716,0.32598332,-0.46023482,0.46700326,-0.030268608,-0.49052334,-0.62713957,-0.51687115,-0.25101003,-0.09370956
-0.3834614,0.042554345,0.48021343,0.28238422,-0.43948156,0.4887395,-0.046718944,-0.5067925,-0.6209232,-0.53706324,-0.27620175,-0.1365659
-0.369487,0.07630978,0.48021343,0.26058465,-0.4291049,0.51047575,-0.07139444,-0.5149271,-0.6209232,-0.55052465,-0.28249967,-0.1365659
-0.34153825,0.1100652,0.46905968,0.2315186,-0.4083517,0.51047575,-0.09606995,-0.5149271,-0.6209232,-0.57744753,-0.28249967,-0.1365659
-0.30893138,0.16632424,0.45232907,0.18791947,-0.38241008,0.5213438,-0.12074546,-0.5149271,-0.6209232,-0.55052465,-0.28249967,-0.1365659
-0.2902989,0.20007966,0.44675222,0.15885338,-0.37203342,0.53221196,-0.14542094,-0.5149271,-0.6209232,-0.53706324,-0.28249967,-0.1365659
-0.35085452,0.15507244,0.49694404,0.22425205,-0.4239166,0.5539482,-0.15364611,-0.53526354,-0.6209232,-0.53706324,-0.28249967,-0.1365659
-0.40209383,0.14382061,0.54713595,0.26058465,-0.47579977,0.5974207,-0.15364611,-0.55153275,-0.6209232,-0.5101404,-0.28249967,-0.1365659
-0.369487,0.14382061,0.5192515,0.2387851,-0.4498582,0.5756844,-0.15364611,-0.57186913,-0.62713957,-0.50340974,-0.28249967,-0.1365659
-0.36482885,0.14382061,0.5080978,0.2387851,-0.43948156,0.56481636,-0.15364611,-0.56780183,-0.6147068,-0.50340974,-0.28249967,-0.1365659
-0.35085452,0.14382061,0.49136716,0.22425205,-0.4239166,0.5430801,-0.13719578,-0.55153275,-0.6457887,-0.47648692,-0.28249967,-0.1365659
-0.34153825,0.1325688,0.47463655,0.22425205,-0.41353998,0.5213438,-0.10429512,-0.55560005,-0.6893034,-0.44956407,-0.2887976,-0.1365659
-0.40675196,0.06505796,0.5192515,0.29691726,-0.47061145,0.53221196,-0.07961961,-0.55153275,-0.683087,-0.42937198,-0.25730798,-0.085138306
-0.45333323,-0.0024528895,0.5359822,0.3477829,-0.50174135,0.5213438,-0.06316928,-0.55560005,-0.6644379,-0.39571843,-0.21322252,-0.042281955
-0.3974357,0.1325688,0.5359822,0.26785117,-0.47061145,0.5865526,-0.03849378,-0.55153275,-0.6520051,-0.3755263,-0.16913703,0.009145642
-0.32756385,0.27884233,0.5359822,0.15885338,-0.43429324,0.6517613,-0.030268608,-0.53119624,-0.6395723,-0.34187275,-0.13134949,0.052001975
-0.25303394,0.4813749,0.5359822,0.035322558,-0.3875984,0.7495744,-0.09606995,-0.47832146,-0.47794643,-0.267835,-0.08726402,0.103429586
-0.20645268,0.5826412,0.5359822,-0.0228096,-0.36684513,0.803915,-0.17009646,-0.4498504,-0.36605158,-0.1803358,-0.049476475,0.12914337
-0.0899996,0.7739219,0.49136716,-0.18267304,-0.27864376,0.8582556,-0.24412295,-0.4254467,-0.37848434,-0.13322085,0.013502777,0.21485604
0.1102997,1.2014906,0.46348283,-0.47333384,-0.15412414,1.0321456,-0.3099243,-0.44578314,-0.36605158,-0.13322085,0.09537579,0.32628253
0.07769284,0.9426991,0.37425283,-0.3716025,-0.13337088,0.81478316,-0.4086263,-0.53526354,-0.38470072,-0.15341298,0.10167373,0.24914111
0.0031628632,0.6051448,0.2961766,-0.19720608,-0.1385592,0.5756844,-0.44975215,-0.5922056,-0.55254304,-0.2812964,0.032396547,0.18057099
0.031111602,0.51513034,0.21252349,-0.18993956,-0.081487715,0.4561351,-0.39217597,-0.66541684,-0.6768706,-0.41591054,-0.030582696,0.09485832
-0.08068335,0.50387853,0.34079158,-0.102741316,-0.2060073,0.56481636,-0.2852488,-0.6491477,-0.6333559,-0.4697562,-0.08726402,0.026288174
-0.23905954,0.25633872,0.41329095,0.10072123,-0.3253386,0.53221196,-0.23589778,-0.65728223,-0.6644379,-0.47648692,-0.1880308,-0.01656816
-0.32290578,0.16632424,0.46348283,0.19518597,-0.39797503,0.53221196,-0.21122229,-0.6166094,-0.5836249,-0.42937198,-0.20692457,-0.025139429
-0.35551265,-0.05871194,0.39098343,0.28965074,-0.37722176,0.34745386,-0.2770236,-0.63287854,-0.6395723,-0.4562948,-0.2384142,-0.085138306
-0.38811952,-0.09246736,0.41886783,0.33324987,-0.4083517,0.358322,-0.23589778,-0.62067664,-0.5587594,-0.3755263,-0.18173288,-0.059424493
-0.6117094,-0.81258315,0.3352147,0.74017495,-0.49655303,-0.065534785,0.4961421,-0.19361115,-0.34740245,-0.41591054,-0.42105404,-0.427989
-0.43935883,-2.7816496,-0.85265934,1.2488313,0.15198654,-2.1739507,1.5571886,1.0794506,0.5539728,0.07543103,-0.68556684,-1.105119
1.9223098,0.357605,-2.1241868,-1.6141773,2.0612872,-1.8913795,0.41389042,1.9986583,2.3132086,2.6734838,2.1862867,1.7662555
