I,II,III,aVR,aVL,aVF,V1,V2,V3,V4,V5,V6
-0.14878184,-2.4408505,-2.0940423,1.7673622,1.3170353,-2.4488091,0.24796993,0.6162957,0.33759198,0.88816494,0.15085585,1.3923546
0.059662376,-2.2634091,-2.0870774,1.5332013,1.4094764,-2.3535657,0.26141927,0.6162957,0.32064313,0.90441924,0.15085585,1.4072978
0.21125817,-2.1013978,-2.052254,1.341615,1.4649409,-2.2503855,0.2793517,0.6162957,0.32064313,0.90441924,0.15085585,1.4446558
-0.21510501,-2.4331357,-2.0383244,1.7992932,1.2523266,-2.4091244,0.33314905,0.6162957,0.32064313,0.90441924,0.15085585,1.3774114
-0.36670083,-2.517999,-2.003501,1.948305,1.1506413,-2.4329352,0.3286659,0.6162957,0.32064313,0.9003557,0.15085585,1.3699397
-0.2814282,-2.4408505,-1.9895716,1.8525119,1.1876179,-2.3853133,0.3555646,0.6162957,0.32064313,0.90848285,0.15615834,1.310167
-0.19615553,-2.3945615,-2.0174303,1.7673622,1.2430824,-2.3773766,0.37798017,0.6060756,0.29945704,0.89222854,0.13494839,1.3026954
-0.12035764,-2.3482726,-2.03136,1.6822128,1.289303,-2.3615026,0.40039572,0.5617885,0.1850521,0.85565627,0.08192348,1.2429227
-0.07298395,-2.2942686,-2.0174303,1.6183506,1.3077911,-2.3297548,0.40039572,0.5243148,0.12573102,0.81908405,0.03950356,1.1906215
-0.0066607846,-2.2556946,-2.03136,1.5544888,1.3540117,-2.3138812,0.33314905,0.43914732,0.14267989,0.790639,-0.013521346,1.3026954
-0.35722607,-2.517999,-2.0104656,1.9376612,1.1691296,-2.440872,0.29280102,0.31991285,-0.035283346,0.68092227,-0.055941273,1.1682067
-0.395125,-2.5951474,-2.0592184,2.012167,1.1783737,-2.5043676,0.21658812,0.21089849,-0.2429071,0.5427605,-0.15668859,0.98888826
-0.035085,-2.4254208,-2.1636891,1.6928564,1.4187204,-2.480557,0.11795966,0.10529082,-0.29799095,0.5386969,-0.20441099,1.1084338
-0.035085,-2.417706,-2.1567242,1.6822128,1.4187204,-2.4726198,0.03726363,0.03375015,-0.37426093,0.53463334,-0.16199109,1.2279794
-0.025610263,-2.4562802,-2.191548,1.7141439,1.4464527,-2.5123045,-0.07033106,-0.054824024,-0.48866585,0.5386969,-0.07184874,1.2055646
0.32495502,-2.2248352,-2.2542303,1.3522586,1.6590672,-2.4249983,-0.21827376,-0.1468049,-0.5183264,0.53463334,0.08192348,1.2802806
0.542874,-2.1554015,-2.3447714,1.1819597,1.8254609,-2.440872,-0.5141592,-0.26944607,-0.49290308,0.5590148,0.23039322,1.4072978
0.3912782,-2.317413,-2.3795948,1.3841897,1.7792405,-2.5440524,-0.64865255,-0.32735994,-0.4547681,0.70936733,0.41598037,1.5193717
0.5618235,-2.2248352,-2.4213831,1.2245344,1.8809257,-2.5202415,-0.585889,-0.24219248,-0.33188874,0.8353384,0.49551773,1.5343149
0.63762134,-2.1939757,-2.4492419,1.1500287,1.9363903,-2.5202415,-0.5231254,-0.10592451,-0.17934881,0.99788165,0.60687,1.459599
0.5239245,-2.0473938,-2.233336,1.1180975,1.742264,-2.3218179,-0.31241912,0.09166403,0.019800514,1.1319798,0.6439875,1.4222409
0.4670761,-1.9702456,-2.1288657,1.0968102,1.6405789,-2.2265747,-0.18689197,0.2143052,0.163866,1.1482341,0.5644501,1.3549966
0.09756132,-2.2556946,-2.1149364,1.50127,1.4556968,-2.3615026,-0.043432385,0.31991285,0.22318707,1.1644886,0.52733266,1.2952238
-0.044559732,-2.2942686,-2.0452893,1.6077071,1.3355235,-2.3456287,0.10899343,0.4595875,0.32488036,1.2132515,0.46900526,1.3325818
-0.05403447,-2.2788389,-2.0104656,1.6077071,1.3077911,-2.3138812,0.14485833,0.5140947,0.36301535,1.2335694,0.47430778,1.3624682
-0.10140816,-2.2556946,-1.9617127,1.6077071,1.2615707,-2.2741961,0.23003747,0.5583818,0.42233643,1.2254422,0.46370277,1.310167
-0.12035764,-2.240265,-1.933854,1.6183506,1.2338383,-2.2503855,0.25693613,0.6605828,0.52402973,1.2295059,0.49021524,1.2802806
0.012288689,-2.2479796,-2.0383244,1.5438448,1.3632557,-2.3138812,0.31969967,0.72871673,0.60029966,1.2295059,0.5220302,1.2503942
-0.05403447,-2.1939757,-1.933854,1.5438448,1.2615707,-2.2345114,0.3465984,0.72871673,0.6214857,1.2295059,0.47961023,1.2130362
-0.23405448,-2.2016907,-1.815454,1.6502815,1.0951767,-2.163079,0.3286659,0.7832239,0.5918252,1.2132515,0.4477953,1.1906215
0.18283395,-2.0242496,-1.9617127,1.2883965,1.4002322,-2.155142,0.39142948,0.8070708,0.587588,1.2051244,0.41067788,1.1682067
0.06913711,-2.1476867,-1.9895716,1.4480517,1.3540117,-2.2345114,0.37349704,0.7764105,0.5664019,1.209188,0.37356046,1.1457918
-0.1866808,-2.317413,-1.954748,1.7035003,1.21535,-2.305944,0.26590237,0.7695972,0.55369025,1.18887,0.36295545,1.1233771
-0.08245868,-2.2171204,-1.9408187,1.5757759,1.2523266,-2.2424486,0.23452057,0.74915695,0.57487637,1.18887,0.38946792,1.1009623
-0.12035764,-2.2171204,-1.9059951,1.5970632,1.2061061,-2.2186375,0.24796993,0.73893684,0.57487637,1.1848065,0.3947704,1.0860192
-0.10140816,-2.1708312,-1.8851011,1.5544888,1.2061061,-2.18689,0.22555435,0.7219034,0.56216466,1.168552,0.38946792,1.0636042
-0.07298395,-2.1322572,-1.8642069,1.5119139,1.2061061,-2.155142,0.22107124,0.71509,0.549453,1.168552,0.38946792,1.0636042
0.021763425,-2.1091127,-1.9199246,1.4480517,1.280059,-2.178953,0.22555435,0.7219034,0.5367414,1.168552,0.38946792,1.0411894
0.08808658,-2.031964,-1.8990306,1.3522586,1.3077911,-2.1233943,0.23452057,0.7116833,0.52402973,1.168552,0.3841654,1.0262463
0.021763425,-2.031964,-1.8502774,1.3948333,1.2430824,-2.0995836,0.27486858,0.7559703,0.57063913,1.168552,0.40007287,1.0262463
-0.06350921,-2.085968,-1.8363482,1.4693391,1.196862,-2.1154575,0.27486858,0.7832239,0.60029966,1.1563613,0.41067788,1.0038315
0.15440975,-1.8468082,-1.7875953,1.1926033,1.2615707,-1.9646555,0.31969967,0.7525636,0.56216466,1.1360434,0.37356046,0.98141664
0.33442977,-1.7310857,-1.8084893,1.0116607,1.3632557,-1.9170338,0.39142948,0.73212343,0.5579275,1.1238527,0.34704798,0.95900196
0.12598553,-1.9471011,-1.8502774,1.2777528,1.289303,-2.051962,0.3690139,0.7116833,0.5282669,1.1075984,0.31523308,0.9365871
-0.09193342,-2.0705385,-1.79456,1.479983,1.1506413,-2.0837097,0.38246328,0.68442965,0.51555526,1.091344,0.28341812,0.9141723
-0.2814282,-2.1631165,-1.745807,1.6502815,1.030468,-2.1075203,0.37798017,0.69805646,0.5070808,1.0832169,0.3046281,0.90670073
-0.2624787,-2.1091127,-1.7109834,1.6077071,1.0027356,-2.0598989,0.37349704,0.73212343,0.511318,1.0466446,0.2993256,0.86934274
-0.27195343,-2.0473938,-1.6483011,1.5651323,0.9657593,-1.9884664,0.38246328,0.67761624,0.50284356,1.0100724,0.26751065,0.8245132
-0.47092292,-2.2325501,-1.6691952,1.809937,0.88256234,-2.0995836,0.23003747,0.6060756,0.32488036,0.97756374,0.2463007,0.80209833
-0.49934712,-2.2556946,-1.6761599,1.8312244,0.87331825,-2.1154575,0.14934145,0.5549751,0.2528476,0.9369279,0.20918325,0.7647404
-0.3856503,-2.1631165,-1.6691952,1.7141439,0.9195388,-2.0598989,0.068645425,0.5038746,0.2740337,0.90441924,0.1826708,0.734854
-0.22457975,-2.139972,-1.7667011,1.6077071,1.0674444,-2.0995836,-0.03446616,0.4834344,0.22318707,0.8719106,0.15615834,0.697496
-0.1866808,-2.1322572,-1.7875953,1.5757759,1.0951767,-2.1075203,-0.047915496,0.4595875,0.2062382,0.8475291,0.13494839,0.69002444
-0.19615553,-2.1245425,-1.7736659,1.5864197,1.0766885,-2.0995836,-0.10619596,0.43574062,0.163866,0.8109569,0.11904091,0.6825528
-0.1393071,-2.085968,-1.7875953,1.5225575,1.1229091,-2.0916464,-0.07929728,0.41530046,0.13844268,0.7825118,0.09783095,0.65266645
-0.16773131,-2.093683,-1.7736659,1.5438448,1.1044208,-2.0916464,-0.047915496,0.39826694,0.11725658,0.7581303,0.07662099,0.65266645
-0.12983236,-2.0705385,-1.7806305,1.50127,1.1229091,-2.0757728,-0.025499934,0.39826694,0.100307696,0.7337488,0.066016,0.6451948
-0.15825658,-2.0551088,-1.7318774,1.50127,1.0674444,-2.044025,0.014848077,0.4834344,0.18081486,0.7215581,0.108435936,0.697496
-0.1866808,-2.0551088,-1.7179482,1.5225575,1.0489563,-2.0360878,0.032780528,0.5379416,0.24861039,0.6971766,0.1243434,0.7199108
-0.10140816,-2.031964,-1.7597364,1.4586955,1.1229091,-2.044025,0.07761165,0.5243148,0.22742428,0.741876,0.08192348,0.65266645
-0.30037764,-2.0088198,-1.5925835,1.5544888,0.9195388,-1.9408447,0.11347655,0.5379416,0.23589872,0.7865754,0.07662099,0.6153084
-0.48039764,-2.0242496,-1.4741836,1.671569,0.7531449,-1.885286,0.16279079,0.5072813,0.24437317,0.7337488,0.03950356,0.5555356
-0.2909029,-2.039679,-1.627407,1.5757759,0.93802696,-1.9725925,0.17624012,0.49365452,0.23589872,0.72562164,0.023596086,0.51070607
-0.22457975,-2.1013978,-1.7318774,1.5757759,1.0397121,-2.0678358,0.122442774,0.4595875,0.1892893,0.6849859,0.03950356,0.48081967
-0.2814282,-2.1476867,-1.7318774,1.6502815,1.0119798,-2.0916464,0.11795966,0.44596076,0.16810322,0.6646679,0.03420107,0.45093325
-0.2909029,-2.093683,-1.6761599,1.6077071,0.97500336,-2.028151,0.06416231,0.39145356,0.13420545,0.6484136,0.023596086,0.4957629
-0.35722607,-2.1168275,-1.6483011,1.6609255,0.9287828,-2.028151,0.046229858,0.33013296,0.100307696,0.62403214,0.0023861253,0.5181777
-0.3098524,-2.031964,-1.6065129,1.5757759,0.9195388,-1.9567184,-0.038949274,0.30628607,0.12996824,0.6646679,0.044806045,0.57047886
-0.44249868,-2.085968,-1.55776,1.6928564,0.8178536,-1.9567184,-0.14654396,0.24496548,0.07064715,0.60371417,-0.013521346,0.4882913
-0.34775135,-2.0088198,-1.5647247,1.5864197,0.8640741,-1.9249707,-0.088263504,0.41189373,0.1850521,0.6890494,0.09783095,0.5181777
-0.5940945,-2.1091127,-1.4672188,1.7992932,0.67919207,-1.9170338,0.08209476,0.5072813,0.19776374,0.56714195,-0.11957116,0.46587646
-0.1866808,-2.0165346,-1.6831245,1.50127,1.030468,-1.9964032,0.40936193,1.0182862,0.8121606,1.062899,0.05541103,0.4359901
1.4240245,-0.90559816,-1.8642069,-0.16978808,1.9363903,-1.5281236,-0.17344263,0.9263053,1.8079073,2.7899215,2.1551971,1.8331789
3.385295,0.03561178,-2.4562066,-1.925996,3.286029,-1.3773216,-1.8366773,-0.4568145,2.536709,5.1305447,5.3579016,4.2838626
5.431839,0.52164644,-3.521806,-3.4161115,4.986944,-1.7344841,-3.9213247,-2.6541352,0.87571895,4.4559903,5.866941,5.4569035
4.039052,-0.7975905,-3.6889586,-1.7131221,4.423054,-2.5123045,-5.077967,-5.2023463,-4.158098,-1.1598804,1.2643789,3.3050833
1.6703677,-2.2325501,-3.243218,0.6072008,2.9717298,-2.9964583,-3.8047636,-4.371112,-5.0521517,-3.342024,-1.6413858,1.0113031
0.8365908,-1.9085268,-2.3378067,0.8520055,1.9548784,-2.305944,-1.702184,-1.5742117,-2.0521998,-1.1070539,-0.6816351,0.8394564
0.16388449,-1.7233708,-1.6761599,1.107454,1.196862,-1.8456013,-0.46036184,-0.2830729,-0.6666291,-0.058649667,-0.28925082,0.6601381
0.15440975,-1.7233708,-1.6691952,1.107454,1.1876179,-1.8376644,-0.003084374,0.28243917,-0.1115533,0.39647153,-0.20971349,0.46587646
-0.20563027,-2.0705385,-1.7179482,1.5438448,1.0397121,-2.044025,0.19417256,0.43914732,0.08759604,0.5265061,-0.20441099,0.3836889
-0.35722607,-2.1708312,-1.697054,1.7035003,0.9565152,-2.0837097,0.3152166,0.5140947,0.23589872,0.51431537,-0.18850352,0.35380253
-0.41407448,-2.0782533,-1.5716894,1.671569,0.84558594,-1.9646555,0.1986557,0.44936746,0.24861039,0.5752691,-0.13547862,0.3463309
-0.46144816,-2.031964,-1.4950776,1.6609255,0.7716331,-1.8932229,0.13140899,0.38804686,0.2062382,0.5590148,-0.15668859,0.28655812
-0.025610263,-1.5999334,-1.4254307,1.1180975,0.93802696,-1.6313039,0.14934145,0.41870716,0.23166151,0.55088764,-0.077151224,0.28655812
-0.2814282,-1.9702456,-1.5716894,1.5119139,0.91029465,-1.9090968,0.10899343,0.37442005,0.17657766,0.51431537,-0.15668859,0.27161494
-0.3098524,-2.0782533,-1.6483011,1.6077071,0.94727105,-2.0043402,0.08657787,0.37442005,0.21047541,0.50212467,-0.19380601,0.28655812
-0.19615553,-1.7696598,-1.4532895,1.3309711,0.87331825,-1.7344841,0.046229858,0.33694637,0.19776374,0.4736796,-0.16729356,0.31644452
-0.6319935,-1.9702456,-1.3139954,1.7141439,0.5682628,-1.7662319,0.13140899,0.39826694,0.23166151,0.45742527,-0.1513861,0.29402974
-0.7646398,-1.9085268,-1.160772,1.7460748,0.40186897,-1.6392409,0.24796993,0.44936746,0.2782709,0.42491663,-0.10896617,0.24920014
-0.77411455,-2.0165346,-1.2443484,1.8312244,0.44808948,-1.750358,0.26590237,0.4255205,0.25708482,0.40053514,-0.1513861,0.21931376
-0.64146817,-2.0782533,-1.4045366,1.7992932,0.62372744,-1.8694122,0.26141927,0.41189373,0.23166151,0.37209004,-0.22562096,0.18942736
-0.5182966,-1.9625306,-1.3836424,1.6502815,0.669948,-1.7979797,0.23003747,0.38804686,0.2062382,0.34770855,-0.26273838,0.15206937
-0.43302396,-1.8545231,-1.3557837,1.5332013,0.68843615,-1.7265471,0.2793517,0.37442005,0.1850521,0.31113634,-0.22562096,0.12965459
-0.4235492,-1.8313785,-1.3488189,1.50127,0.68843615,-1.7106732,0.29728413,0.28243917,0.06217271,0.20548318,-0.28394833,0.12965459
-0.78358924,-2.0705385,-1.2931013,1.8631554,0.48506588,-1.7979797,0.2390037,0.20408511,-0.047995,0.12014795,-0.3687882,0.10723979
-0.72674084,-2.0473938,-1.3139954,1.8205806,0.52204233,-1.7979797,0.2076219,0.14957792,-0.10307886,0.042939886,-0.33167076,0.09229659
-0.31932712,-1.9316715,-1.5159717,1.5119139,0.8548301,-1.8535383,0.0955441,0.0133099565,-0.26409322,-0.034268174,-0.44302306,0.0773534
-0.20563027,-1.8545231,-1.5229365,1.4054772,0.91029465,-1.8217906,-0.11516218,-0.1706518,-0.39968425,-0.09115832,-0.44832557,0.21184216
-0.12983236,-1.7310857,-1.4672188,1.2671092,0.91029465,-1.7265471,-0.30793604,-0.33076665,-0.50985193,-0.16023922,-0.35288075,0.35380253
0.06913711,-1.5459296,-1.4463247,1.0329481,0.99349153,-1.61543,-0.39759827,-0.37164703,-0.51408917,-0.10741265,-0.2521334,0.3911605
0.30600557,-1.29134,-1.3906071,0.72428125,1.0766885,-1.4566911,-0.44242936,-0.38186714,-0.37426093,0.026685556,-0.029428815,0.51070607
0.4481266,-1.1447581,-1.3627483,0.5433387,1.1321532,-1.3693846,-0.42898005,-0.30010635,-0.23443267,0.20548318,0.1879733,0.734854
0.4102277,-1.1293285,-1.3279248,0.5539824,1.0859326,-1.337637,-0.36621648,-0.191092,-0.11579052,0.3639629,0.32053554,0.8394564
0.06913711,-1.4147774,-1.3279248,0.93715495,0.9195388,-1.4805019,-0.3348347,-0.1331781,-0.031046122,0.35583574,0.336443,0.7423256
-0.0066607846,-1.476496,-1.3279248,1.0223044,0.88256234,-1.5122497,-0.19137508,-0.00031684048,0.07488438,0.43304378,0.32053554,0.69002444
0.16388449,-1.3299142,-1.3279248,0.83071816,0.9657593,-1.4408172,-0.003084374,0.17342481,0.23589872,0.51431537,0.30993056,0.6153084
0.13546027,-1.3684883,-1.3279248,0.8626492,0.94727105,-1.4566911,0.09106098,0.27221906,0.31640592,0.48587036,0.2887206,0.5555356
0.4481266,-1.0830394,-1.3070308,0.50076395,1.0859326,-1.3058891,0.2390037,0.36419997,0.3799642,0.5549512,0.28341812,0.5256493
0.10703606,-1.3067696,-1.2652425,0.84136176,0.8918064,-1.3931955,0.33314905,0.41189373,0.46894583,0.5996506,0.26751065,0.48081967
-0.4898724,-1.7465154,-1.2164896,1.479983,0.5682628,-1.5916193,0.31073347,0.38464013,0.46894583,0.5752691,0.23569572,0.45840487
-0.3382766,-1.576789,-1.1747013,1.2777528,0.61448336,-1.472565,0.37798017,0.44936746,0.46894583,0.54682404,0.21448575,0.4135753
-0.30037764,-1.4842108,-1.1189837,1.1926033,0.6052392,-1.4011326,0.4586762,0.4800277,0.46894583,0.5224425,0.1879733,0.3911605
-0.22457975,-1.3762032,-1.0841602,1.0755228,0.61448336,-1.321763,0.530406,0.49365452,0.46894583,0.4939975,0.16676334,0.35380253
-0.1108829,-1.2527658,-1.0493368,0.9265113,0.64221567,-1.2423937,0.5393722,0.5209081,0.4647086,0.46961603,0.14025088,0.35380253
-0.07298395,-1.2219065,-1.0493368,0.8839365,0.66070384,-1.2265198,0.37798017,0.43574062,0.44775975,0.45742527,0.1243434,0.35380253
-0.17720605,-1.2990549,-1.0423721,1.0010171,0.6052392,-1.2662045,0.2793517,0.33694637,0.44775975,0.43304378,0.1243434,0.35380253
-0.27195343,-1.3376291,-1.0075485,1.0755228,0.5405305,-1.2582675,0.29728413,0.34716645,0.44775975,0.4736796,0.1243434,0.35380253
-0.16773131,-1.2681955,-1.0214779,0.969086,0.5959951,-1.2265198,0.27486858,0.43233392,0.44775975,0.50212467,0.1243434,0.33885932
-0.22457975,-1.29134,-1.0005839,1.0223044,0.5590187,-1.2344568,0.27486858,0.4527741,0.44775975,0.4980611,0.1243434,0.31644452
-0.044559732,-1.1987619,-1.0493368,0.8520055,0.67919207,-1.2106459,0.25245303,0.43914732,0.48589474,0.53056973,0.1879733,0.31644452
-0.025610263,-1.3067696,-1.160772,0.9158676,0.762389,-1.3297,0.2883179,0.4561808,0.52402973,0.5427605,0.2463007,0.29402974
-0.16773131,-1.4147774,-1.1468426,1.0755228,0.67919207,-1.3773216,0.33314905,0.46980762,0.49436912,0.5793327,0.21978824,0.27161494
0.08808658,-1.2064768,-1.1538073,0.7881434,0.80860955,-1.2741414,0.39591262,0.510688,0.57063913,0.61996853,0.2409982,0.29402974
-0.0066607846,-1.2836252,-1.1538073,0.89458025,0.762389,-1.3138261,0.5124735,0.58904207,0.6723324,0.6890494,0.2940231,0.19689897
-0.16773131,-1.4147774,-1.1538073,1.0755228,0.68843615,-1.3852586,0.52143973,0.5924488,0.67656964,0.69311297,0.3046281,0.27161494
-0.1393071,-1.3916329,-1.1538073,1.0435917,0.69768023,-1.3693846,0.5528215,0.5549751,0.7189418,0.6524772,0.36295545,0.45840487
-0.15825658,-1.3993478,-1.1538073,1.0542355,0.69768023,-1.3773216,0.5842033,0.54816175,0.7019929,0.6321593,0.34704798,0.3911605
-0.12035764,-1.3993478,-1.1677366,1.0329481,0.72541255,-1.3852586,0.52143973,0.510688,0.6214857,0.5996506,0.26220816,0.3015013
-0.27195343,-1.3993478,-1.0632662,1.1287413,0.5775069,-1.321763,0.530406,0.5038746,0.57911354,0.5793327,0.21448575,0.21931376
-0.4898724,-1.383918,-0.88914865,1.2351781,0.34640434,-1.2106459,0.5842033,0.5140947,0.5960624,0.5549512,0.14555337,0.15954097
-0.5372461,-1.3376291,-0.81950164,1.2245344,0.28169563,-1.1550872,0.4586762,0.39486024,0.4816575,0.48993394,0.08722597,0.12965459
-0.32880187,-1.3067696,-0.94486624,1.0861665,0.46657768,-1.2106459,0.36453083,0.31991285,0.38420144,0.37615362,0.028898578,0.09229659
-0.22457975,-1.2836252,-0.99361914,1.0116607,0.5497746,-1.2265198,0.37349704,0.31309947,0.37572697,0.32739064,0.0023861253,0.06241021
-0.17720605,-1.2141917,-0.9657603,0.93715495,0.5590187,-1.1709611,0.34211525,0.29606596,0.33335477,0.3395814,-0.018823838,0.025052221
-0.32880187,-1.3530587,-0.98665446,1.1180975,0.49431,-1.2582675,0.33763212,0.2790325,0.30793145,0.33551782,-0.034731306,-0.004834167
-0.4898724,-1.4842108,-0.97272503,1.2990402,0.41111305,-1.3138261,0.30176726,0.26540568,0.2655593,0.33145422,-0.0029163659,-0.019777361
-0.395125,-1.4070626,-0.9796897,1.1926033,0.45733356,-1.2820784,0.3555646,0.27221906,0.30793145,0.34364495,0.03420107,-0.019777361
-0.40459973,-1.3762032,-0.94486624,1.1819597,0.42960125,-1.2423937,0.40039572,0.2790325,0.33335477,0.30300915,0.066016,-0.04966375
-0.395125,-1.3299142,-0.9100427,1.139385,0.41111305,-1.1947719,0.4362606,0.35397986,0.3545409,0.34364495,0.10313345,-0.057135347
-0.395125,-1.2990549,-0.8752192,1.1180975,0.39262486,-1.1630242,0.4990242,0.39826694,0.40962476,0.42085302,0.13494839,-0.057135347
-0.37617555,-1.2527658,-0.84736043,1.0755228,0.38338074,-1.1233395,0.48557484,0.39826694,0.41386196,0.42085302,0.16146083,-0.019777361
-0.3856503,-1.2219065,-0.8125369,1.0648792,0.35564843,-1.0915917,0.48557484,0.38464013,0.38843867,0.4086623,0.14555337,0.017580625
-0.3856503,-1.1833323,-0.78467816,1.0329481,0.33716026,-1.0519071,0.5124735,0.42211387,0.4562342,0.42491663,0.15615834,0.05493861
-0.36670083,-1.152473,-0.77074873,1.0010171,0.33716026,-1.0280962,0.5662709,0.41530046,0.44775975,0.4289802,0.14555337,0.084824994
-0.35722607,-1.1138989,-0.74288994,0.9797297,0.31867203,-0.99634844,0.57523704,0.4595875,0.51555526,0.46148884,0.16676334,0.12218299
-0.32880187,-1.0830394,-0.7359252,0.93715495,0.32791612,-0.98047453,0.4586762,0.38123342,0.42233643,0.46555242,0.17206582,0.11471139
-0.40459973,-1.0984691,-0.694137,0.99037343,0.27245152,-0.95666367,0.4407437,0.30628607,0.30793145,0.4289802,0.0713185,-0.012305765
-0.3382766,-1.0676098,-0.7150311,0.9265113,0.30942792,-0.9487267,0.38694638,0.33353966,0.39691305,0.5102518,0.03950356,-0.116908126
-0.41407448,-1.1293285,-0.72199583,1.0223044,0.28169563,-0.9884115,0.6424838,0.476621,0.37572697,0.35989928,-0.2680409,-0.34852764
0.012288689,-0.8747388,-0.7986075,0.5965571,0.5405305,-0.9011051,0.772494,1.0285063,1.1892732,0.98569095,0.2940231,-0.04966375
1.2629539,-0.08011076,-1.0005839,-0.6487538,1.280059,-0.61537516,-0.42001384,0.2756258,1.9138378,2.7167768,2.563489,1.6463889
3.896931,1.0771146,-1.8920658,-2.926502,3.1566117,-0.5280688,-2.4239652,-1.3527763,2.3545086,4.866412,5.6283283,4.059715
5.668707,0.9691069,-3.2919707,-3.8525026,4.940724,-1.3773216,-4.6969028,-3.7306523,-0.23019546,2.891511,4.933702,4.4183517
3.9916782,-0.4967119,-3.382512,-1.8940647,4.1919513,-2.178953,-4.916575,-5.3488345,-4.687751,-2.4561632,0.30993056,2.1021564
2.200953,-0.8515943,-2.3935242,-0.63811016,2.6666744,-1.8059167,-2.697435,-3.3082216,-3.7894602,-2.8218853,-1.0528095,0.6601381
0.86501503,-0.7127273,-1.279172,0.011154536,1.2708148,-1.0995287,-0.91315615,-1.1313409,-1.3022121,-0.98921,-0.45362806,0.42851847
-0.12035764,-0.774446,-0.6105606,0.6072008,0.34640434,-0.7423662,0.08209476,-0.18768528,-0.36154926,-0.33497325,-0.38469568,0.18942736
-0.1866808,-0.6972976,-0.49216065,0.5859134,0.2447192,-0.63918597,0.5124735,0.38804686,0.36301535,0.27050048,-0.029428815,0.16701257
-0.27195343,-0.70501244,-0.43644303,0.6391319,0.16152227,-0.6074382,0.63351756,0.4561808,0.3926759,0.31113634,-0.04533629,0.084824994
-0.30037764,-0.7281569,-0.43644303,0.6710629,0.15227818,-0.62331206,0.65593314,0.54816175,0.4435225,0.3639629,0.007688615,0.05493861
-0.19615553,-0.6047196,-0.40161952,0.52205133,0.1800105,-0.5360057,0.57523704,0.5004679,0.38843867,0.30300915,-0.066546254,-0.004834167
-0.36670083,-0.7358718,-0.40161952,0.72428125,0.087569445,-0.6074382,0.5438553,0.49365452,0.38843867,0.294882,-0.11426867,-0.057135347
-0.87833667,-1.1138989,-0.35983133,1.2671092,-0.18050955,-0.77411395,0.48557484,0.46299422,0.37148976,0.2745641,-0.20441099,-0.09449334
-0.78358924,-1.0830394,-0.40161952,1.1819597,-0.10655673,-0.7820509,0.49454108,0.43233392,0.3545409,0.24205542,-0.2680409,-0.15426612
-0.5940945,-1.0676098,-0.5269842,1.0755228,0.059837136,-0.8455465,0.48557484,0.41870716,0.41386196,0.23799184,-0.23092343,-0.1916241
-0.5372461,-1.0521802,-0.54787827,1.0329481,0.096813545,-0.8534834,0.4676424,0.39145356,0.38420144,0.20954676,-0.2574359,-0.2588685
-0.4235492,-1.0058911,-0.59663117,0.93715495,0.19849868,-0.86142033,0.4676424,0.39145356,0.37148976,0.20548318,-0.24152842,-0.28128326
-0.4898724,-1.0290356,-0.5687724,0.99037343,0.14303407,-0.8455465,0.4676424,0.37782675,0.3545409,0.18922885,-0.2521334,-0.28128326
-0.30037764,-0.8130201,-0.5130547,0.734925,0.19849868,-0.71061844,0.4676424,0.36760667,0.32488036,0.16484736,-0.27334335,-0.28128326
-0.08245868,-0.6124344,-0.49216065,0.4688329,0.2909397,-0.59156424,0.4721255,0.36079326,0.32488036,0.18922885,-0.27334335,-0.28128326
-0.20563027,-0.6510086,-0.42947835,0.56462604,0.18925458,-0.5756904,0.5169566,0.35057315,0.30793145,0.18922885,-0.27864587,-0.28128326
-0.5467208,-0.7898756,-0.3110784,0.8520055,-0.06033621,-0.58362734,0.5528215,0.30628607,0.2062382,0.067321375,-0.27334335,-0.28128326
-0.78358924,-0.820735,-0.16481966,1.0116607,-0.2729506,-0.5201318,0.5035073,0.27221906,0.11725658,-0.00988668,-0.26273838,-0.28128326
-0.75516504,-0.80530536,-0.17178439,0.9797297,-0.2544624,-0.50425786,0.47660863,0.17342481,0.015563298,-0.07084041,-0.34757823,-0.31864128
-0.575145,-0.7590163,-0.2692902,0.84136176,-0.09731262,-0.5360057,0.40039572,0.05078364,-0.1115533,-0.19681145,-0.44302306,-0.28128326
-0.5372461,-0.76673114,-0.30411372,0.83071816,-0.06033621,-0.56775343,0.16279079,-0.1536183,-0.34883764,-0.40405416,-0.48014048,-0.24392529
-0.34775135,-0.7127273,-0.38072544,0.69235027,0.087569445,-0.58362734,0.0013987386,-0.33417335,-0.49714032,-0.48126218,-0.4324181,-0.1990957
-0.40459973,-0.75130147,-0.38072544,0.7455687,0.059837136,-0.5995012,-0.1555102,-0.42274752,-0.5649358,-0.4162449,-0.38469568,-0.16173771
-0.6319935,-0.89016855,-0.3319725,0.969086,-0.08806852,-0.64712286,-0.2631049,-0.5487954,-0.63696855,-0.39592698,-0.3157633,-0.10943654
-0.1866808,-0.68186796,-0.47823128,0.5752697,0.226231,-0.61537516,-0.27655423,-0.50791496,-0.50985193,-0.31465533,-0.10896617,0.032523822
0.059662376,-0.54300094,-0.53394884,0.3517524,0.38338074,-0.58362734,-0.25413868,-0.36483365,-0.33188874,-0.13992131,0.11904091,0.18942736
0.012288689,-0.53528607,-0.49216065,0.36239606,0.33716026,-0.5518796,-0.11964529,-0.21493888,-0.1327394,0.034812722,0.23039322,0.20437056
0.08808658,-0.45813772,-0.47823128,0.2772466,0.36489254,-0.50425786,0.005881851,-0.04460393,0.045223836,0.17297453,0.21448575,0.16701257
0.09756132,-0.4118487,-0.44340774,0.23467189,0.34640434,-0.46457317,0.11795966,0.081443936,0.22318707,0.28269124,0.27811563,0.28655812
0.10703606,-0.38098934,-0.42251363,0.20274083,0.33716026,-0.43282542,0.25245303,0.23815209,0.37572697,0.34770855,0.30993056,0.3015013
0.25863186,-0.23440748,-0.40161952,0.021798221,0.39262486,-0.34551907,0.3555646,0.34035307,0.38843867,0.32739064,0.26220816,0.24172856
0.09756132,-0.3269855,-0.36679605,0.17080978,0.2909397,-0.3772668,0.4407437,0.39145356,0.42233643,0.28675482,0.23569572,0.21931376
0.00281395,-0.3887042,-0.35286662,0.26660293,0.23547511,-0.40107766,0.52143973,0.42211387,0.43081084,0.25830975,0.21448575,0.15954097
-0.025610263,-0.38098934,-0.3180431,0.2878903,0.19849868,-0.3772668,0.52592283,0.38804686,0.3545409,0.22986467,0.16146083,0.13712619
-0.37617555,-0.63557893,-0.297149,0.6497755,0.013616616,-0.496321,0.49005795,0.36079326,0.31640592,0.17297453,0.08192348,0.04746702
-0.47092292,-0.68186796,-0.2692902,0.734925,-0.051092114,-0.50425786,0.47660863,0.32672626,0.2782709,0.11608436,-0.02412633,-0.087021746
-0.6604177,-0.8130201,-0.2483961,0.93715495,-0.15277724,-0.5598165,0.4362606,0.29606596,0.25708482,0.087639295,-0.21501596,-0.17668091
-0.575145,-0.8130201,-0.30411372,0.8839365,-0.078824416,-0.59156424,0.4317775,0.29606596,0.22742428,0.095766455,-0.23622593,-0.15426612
-0.395125,-0.68186796,-0.32500783,0.7029939,0.022860719,-0.5360057,0.40936193,0.28925258,0.19352654,0.087639295,-0.15668859,-0.09449334
-0.35722607,-0.64329374,-0.3110784,0.6497755,0.032104824,-0.50425786,0.4676424,0.39826694,0.3418292,0.09983004,-0.11957116,-0.057135347
-0.2814282,-0.55843055,-0.297149,0.5433387,0.059837136,-0.45663625,0.57523704,0.5209081,0.4816575,0.18110168,-0.055941273,0.0026374296
-0.2814282,-0.53528607,-0.27625492,0.52205133,0.05059303,-0.43282542,0.5886864,0.54134834,0.52402973,0.22580108,-0.02412633,0.03999542
-0.20563027,-0.48899707,-0.29018432,0.44754556,0.096813545,-0.40901458,0.5617878,0.5686019,0.53250414,0.23392825,0.023596086,0.10723979
-0.23405448,-0.4118487,-0.1996432,0.42625818,0.022860719,-0.32964516,0.5886864,0.612889,0.57063913,0.30300915,0.09783095,0.21931376
-0.25300395,-0.27298164,-0.060349148,0.33046502,-0.078824416,-0.17884323,0.6155851,0.6162957,0.63843465,0.35177213,0.16676334,0.31644452
-0.24352922,-0.110970095,0.08590959,0.21338452,-0.17126545,-0.012167422,0.611102,0.6197024,0.6426719,0.3395814,0.2409982,0.4061037
-0.19615553,0.08961563,0.22520362,0.053729266,-0.24521828,0.17038228,0.71421355,0.6708029,0.7358907,0.43304378,0.2463007,0.50323445
-0.1108829,0.15904915,0.21823893,-0.052707564,-0.19899777,0.20213005,0.7276629,0.6537694,0.73165345,0.4533617,0.19327578,0.48081967
-0.30037764,-0.049251415,0.17645071,0.20274083,-0.26370648,0.06720201,0.69179803,0.6060756,0.6426719,0.38021722,0.15085585,0.3762173
-0.44249868,-0.20354812,0.1485919,0.38368344,-0.30992702,-0.020104365,0.5976527,0.5209081,0.57063913,0.30707273,0.09783095,0.3015013
-0.17720605,-0.041536577,0.092874296,0.12823506,-0.15277724,0.027517295,0.45419306,0.37442005,0.43504804,0.18922885,0.05541103,0.23425694
-0.25300395,-0.12639977,0.071980186,0.2240282,-0.17126545,-0.020104365,0.4362606,0.30287936,0.39691305,0.18922885,0.028898578,0.18942736
-0.46144816,-0.35013,0.016262574,0.50076395,-0.23597418,-0.17090629,0.40936193,0.24155879,0.36301535,0.15265661,-0.008218855,0.13712619
-0.3382766,-0.28841132,-0.011596234,0.39432713,-0.15277724,-0.1550324,0.39591262,0.23815209,0.3418292,0.12014795,-0.034731306,0.084824994
-0.23405448,-0.303841,-0.10213736,0.3517524,-0.051092114,-0.210591,0.3690139,0.1904583,0.30793145,0.08357571,-0.061243758,0.03999542
-0.17720605,-0.42727837,-0.25536078,0.39432713,0.087569445,-0.36139292,0.3600477,0.23815209,0.2782709,0.038876306,-0.061243758,0.017580625
-0.3382766,-0.43499318,-0.15089026,0.4901203,-0.06033621,-0.30583432,0.3465984,0.32331955,0.2909826,0.034812722,-0.08775621,0.084824994
-0.395125,-0.3887042,-0.060349148,0.4901203,-0.14353314,-0.23440182,0.38246328,0.29265928,0.2528476,-0.022077424,-0.16729356,0.069881804
-0.5372461,-0.43499318,0.002333171,0.5965571,-0.2544624,-0.21852794,0.44522685,0.33353966,0.3121687,0.0023040667,-0.066546254,0.13712619
-0.58461976,-0.4195635,0.051086087,0.61784446,-0.31917113,-0.17884323,0.4272944,0.2790325,0.22742428,-0.04239534,-0.10366368,0.12218299
-0.31932712,-0.16497396,0.08590959,0.2878903,-0.20824187,-0.03597825,0.48557484,0.39145356,0.37572697,0.13640228,0.012991106,0.20437056
-0.64146817,-0.06468108,0.42021528,0.39432713,-0.5872501,0.210067,0.65593314,0.44936746,0.38420144,0.04700347,-0.098361194,0.13712619
-0.55619556,-0.19583328,0.23216833,0.44754556,-0.42085627,0.03545424,1.014582,0.9024584,0.75283957,0.25424615,-0.22562096,-0.16173771
0.07861185,0.17447881,0.1068037,-0.16978808,-0.0326039,0.14657146,0.5124735,0.88201827,1.570623,1.5789739,1.2378664,0.8170416
2.2862256,1.4860008,-0.3459019,-2.3091683,1.3447677,0.56722945,-1.1148962,-0.36483365,2.3502715,3.8870885,4.318613,3.1332366
5.0623236,2.0646136,-1.8572422,-4.2676063,3.702014,0.0037064643,-3.3743846,-2.3407192,1.4053714,4.110586,5.6654463,4.6574426
4.256971,0.75309145,-2.4492419,-2.9052145,3.702014,-1.0042853,-4.9031262,-5.0013514,-3.4504826,-1.0461001,1.730998,2.9912763
2.3620236,-0.22669263,-1.9408187,-1.1702943,2.4448156,-1.2185829,-3.576125,-4.459686,-4.937747,-3.7036827,-1.4133788,0.7572688
1.1776813,-0.010677238,-0.8821839,-0.6487538,1.1598855,-0.50425786,-1.4331971,-1.8058673,-2.1623676,-1.8222444,-0.88843226,0.3612741
0.09756132,0.14361946,0.05805078,-0.14850071,0.0043725115,0.10688673,-0.3706996,-0.62714946,-0.84035516,-0.88762045,-0.6127028,0.15954097
-0.12983236,0.15133432,0.23216833,-0.042063877,-0.21748598,0.210067,0.17624012,0.054190338,-0.10307886,-0.2740195,-0.32106578,0.09229659
-0.16773131,0.13590464,0.24609771,-0.010132829,-0.24521828,0.210067,0.37798017,0.28243917,0.121493794,-0.10741265,-0.2574359,0.025052221
-0.09193342,0.15133432,0.19734481,-0.052707564,-0.18050955,0.18625617,0.4676424,0.37101334,0.22318707,-0.08709474,-0.27334335,-0.04966375
-0.12035764,0.14361946,0.21823893,-0.031420194,-0.20824187,0.19419311,0.53488904,0.42211387,0.3418292,-0.0058230977,-0.20971349,-0.03472056
-0.3856503,0.13590464,0.40628585,0.117591366,-0.46707678,0.3053103,0.5617878,0.38804686,0.30793145,-0.013950261,-0.23622593,-0.09449334
-0.41407448,0.25162718,0.5316505,0.053729266,-0.5595178,0.4323014,0.530406,0.39486024,0.3121687,0.06325779,-0.16729356,-0.116908126
-0.6509429,0.03561178,0.5037917,0.33046502,-0.6519588,0.3053103,0.5393722,0.36079326,0.24013595,-0.03020459,-0.24683091,-0.14679451
-0.83096296,-0.13411461,0.4898623,0.5539824,-0.7259117,0.210067,0.52143973,0.36079326,0.22318707,-0.066776834,-0.2998558,-0.1990957
-0.575145,0.051041447,0.4689682,0.2772466,-0.5872501,0.28943643,0.5079904,0.33353966,0.19352654,-0.12366699,-0.2998558,-0.1916241
-0.7172661,-0.0878256,0.44807404,0.45818922,-0.64271474,0.210067,0.5124735,0.33013296,0.21894985,-0.15211205,-0.32636824,-0.2140389
-0.6888419,-0.06468108,0.44807404,0.42625818,-0.63347065,0.21800394,0.5124735,0.32672626,0.21471263,-0.15211205,-0.35818323,-0.37841403
-0.36670083,0.18219365,0.4411094,0.07501663,-0.4763209,0.34499502,0.5483384,0.32672626,0.21047541,-0.14804848,-0.34757823,-0.40082884
-0.75516504,0.012467268,0.5734387,0.41561452,-0.74439985,0.32912114,0.53488904,0.32331955,0.21894985,-0.13585772,-0.35818323,-0.38588566
-0.72674084,-0.0029624044,0.5246858,0.4049708,-0.69817936,0.29737335,0.4990242,0.33694637,0.2062382,-0.1196034,-0.34227577,-0.40082884
-0.47092292,0.18990849,0.5177211,0.12823506,-0.578006,0.38467973,0.4721255,0.34375975,0.17234044,-0.18462071,-0.3687882,-0.39335722
-0.69831663,0.18219365,0.6779092,0.25595927,-0.7906204,0.47992307,0.4317775,0.2517789,0.05793549,-0.26995593,-0.40060318,-0.38588566
-0.6225187,0.16676398,0.6082622,0.23467189,-0.7074235,0.42436448,0.40936193,0.14617121,-0.09460442,-0.33090967,-0.44832557,-0.34852764
-0.5372461,0.14361946,0.5177211,0.20274083,-0.6149824,0.3688059,0.30176726,0.04056355,-0.19206049,-0.39592698,-0.51195544,-0.31116965
-0.46144816,0.12047497,0.44807404,0.17080978,-0.5225414,0.31324726,0.16279079,-0.04801063,-0.32341427,-0.5097073,-0.46953553,-0.28128326
-0.43302396,0.09733046,0.40628585,0.17080978,-0.48556498,0.2814995,0.08657787,-0.12636471,-0.39120978,-0.61536044,-0.4377206,-0.24392529
-0.43302396,0.105045296,0.42021528,0.17080978,-0.48556498,0.29737335,0.010364964,-0.28647956,-0.50561476,-0.6478691,-0.40060318,-0.2140389
-0.41407448,0.105045296,0.39235646,0.1601661,-0.4578327,0.27356255,-0.05239861,-0.4091207,-0.5945964,-0.6478691,-0.3687882,-0.16920932
-0.3856503,0.105045296,0.37842706,0.13887875,-0.43934447,0.26562563,-0.13309462,-0.4363743,-0.5479869,-0.5178345,-0.32106578,-0.09449334
-0.31932712,0.15133432,0.37842706,0.07501663,-0.41161215,0.28943643,-0.16895953,-0.40230733,-0.49714032,-0.4081177,-0.18320101,-0.019777361
-0.24352922,0.25162718,0.40628585,-0.042063877,-0.39312398,0.36086893,-0.10619596,-0.32054657,-0.34036317,-0.298401,-0.11426867,0.032523822
-0.016135523,0.42906842,0.39235646,-0.2868686,-0.2729506,0.44023836,-0.043432385,-0.1774652,-0.18358605,-0.18055712,-0.098361194,0.06241021
-0.07298395,0.46764258,0.4689682,-0.2762249,-0.3469034,0.5037339,0.06416231,-0.034383833,-0.06494388,-0.15211205,-0.08245372,0.09976819
-0.10140816,0.4444981,0.47593287,-0.25493753,-0.37463576,0.49579695,0.15830766,0.074630536,0.036749396,-0.11553982,-0.055941273,0.12218299
-0.08245868,0.42906842,0.44807404,-0.25493753,-0.33765933,0.47198611,0.2434868,0.20749179,0.16810322,-0.08709474,-0.04533629,0.16701257
-0.08245868,0.40592387,0.42717996,-0.23365016,-0.31917113,0.44817528,0.27486858,0.23815209,0.2528476,-0.054586083,-0.018823838,0.18942736
-0.035085,0.41363874,0.39932114,-0.26558122,-0.2821947,0.44023836,0.27038547,0.24496548,0.22742428,-0.026141008,-0.029428815,0.19689897
-0.34775135,0.37506455,0.5943328,-0.06335125,-0.56876194,0.52754474,0.38246328,0.33013296,0.2528476,-0.0017595151,-0.10896617,0.3015013
-0.34775135,0.41363874,0.6291563,-0.08463862,-0.59649426,0.56722945,0.48557484,0.41530046,0.3545409,0.018558394,-0.11426867,0.30897292
-0.24352922,0.50621676,0.63612103,-0.21236281,-0.5502737,0.6227881,0.5483384,0.4595875,0.42233643,0.04700347,-0.11426867,0.26414335
-0.41407448,0.48307225,0.7405915,-0.10592598,-0.69817936,0.6624728,0.5842033,0.46299422,0.4265736,0.038876306,-0.11426867,0.24920014
-0.4898724,0.3827794,0.70576805,0.011154536,-0.7074235,0.59104025,0.57523704,0.46299422,0.40962476,-0.00988668,-0.11426867,0.21184216
-0.5656703,0.305631,0.6918386,0.10694769,-0.7351558,0.5513556,0.5797202,0.44596076,0.3799642,-0.06271325,-0.11426867,0.20437056
-0.66989243,0.18219365,0.65701514,0.24531557,-0.76288813,0.4640492,0.5842033,0.44936746,0.3799642,-0.09928548,-0.08775621,0.20437056
-0.55619556,0.25162718,0.63612103,0.13887875,-0.6889353,0.48786,0.57523704,0.43914732,0.3291176,-0.10741265,-0.08245372,0.20437056
-0.16773131,0.5447909,0.62219167,-0.2868686,-0.49480912,0.630725,0.59316957,0.46299422,0.37572697,-0.050522503,-0.061243758,0.20437056
-0.10140816,0.66822827,0.68487394,-0.4039491,-0.5040532,0.72596836,0.5797202,0.510688,0.4011503,-0.03833176,-0.04533629,0.20437056
-0.2814282,0.61422443,0.76148564,-0.26558122,-0.64271474,0.7418422,0.530406,0.5209081,0.4562342,0.0063676494,-0.0400338,0.21931376
-0.27195343,0.61422443,0.75452095,-0.26558122,-0.64271474,0.7418422,0.4721255,0.40508035,0.49860635,0.03074914,-0.013521346,0.29402974
-0.34775135,0.5756503,0.7684504,-0.20171914,-0.67969114,0.73390526,0.39142948,0.38123342,0.47318304,0.034812722,-0.0029163659,0.21184216
-0.31932712,0.56793547,0.74755627,-0.21236281,-0.6519588,0.7180314,0.30625036,0.43914732,0.52402973,0.10389362,0.066016,0.21184216
-0.3856503,0.5756503,0.81023854,-0.18043177,-0.7259117,0.75771606,0.52592283,0.52772146,0.48589474,0.05919422,-0.098361194,0.10723979
-0.4235492,0.5525058,0.81023854,-0.14850071,-0.74439985,0.74977916,0.96975094,1.2431283,1.2401198,0.64435,0.14555337,-0.004834167
0.59972245,1.2854152,0.7196975,-1.2235128,-0.18975365,1.0672569,0.40487882,1.2397217,2.299425,2.3673089,2.1551971,1.496957
3.356871,2.4734998,-0.24143142,-3.5970538,1.7977287,1.1307524,-1.0476495,0.13595112,3.0748363,4.6957417,5.310179,3.8803968
5.0433745,2.5043592,-1.4463247,-4.5549855,3.4154468,0.4640492,-3.2040265,-2.861944,-0.05646944,2.432326,4.5148053,4.1045446
3.176851,0.77623606,-1.6343716,-2.319812,2.6389418,-0.5280688,-4.4458485,-5.8019257,-5.509772,-3.4436138,-0.28394833,1.7958208
1.7177414,0.105045296,-1.1677366,-1.0319264,1.6128466,-0.6074382,-2.9215906,-4.054289,-4.8148675,-3.963752,-1.9383253,0.22678536
0.69446975,0.8456695,0.2600271,-0.97870797,0.16152227,0.5831033,-0.9983353,-1.3732165,-1.7725435,-1.708464,-1.005087,0.05493861
-0.66989243,0.4753574,0.92167383,0.04308559,-0.9385261,0.77358997,0.07761165,-0.2830729,-0.61578244,-0.7697766,-0.55967784,0.084824994
-0.60356927,0.2747717,0.6918386,0.14952241,-0.753644,0.5354817,0.4631593,0.2790325,-0.07765555,-0.33090967,-0.41120812,0.15954097
-0.7646398,0.25162718,0.78934443,0.25595927,-0.90154964,0.5751664,0.41832814,0.24496548,-0.081892766,-0.39999056,-0.46423304,-0.004834167
-0.7456903,0.15904915,0.68487394,0.30917767,-0.8183527,0.47198611,0.4407437,0.29606596,0.08335882,-0.30652815,-0.37939322,-0.042192157
-0.30037764,0.5370761,0.70576805,-0.20171914,-0.6149824,0.67834663,0.40487882,0.26540568,0.100307696,-0.31465533,-0.37939322,-0.14679451
-0.19615553,0.56793547,0.6639798,-0.2868686,-0.54102963,0.6704097,0.39591262,0.28584588,0.15539156,-0.2780831,-0.34227577,-0.22898209
-0.14878184,0.56793547,0.6152269,-0.30815595,-0.48556498,0.638662,0.37798017,0.28243917,0.14267989,-0.24557443,-0.32106578,-0.1916241
-0.34775135,0.5756503,0.77541506,-0.20171914,-0.6889353,0.73390526,0.41384506,0.29265928,0.14267989,-0.24557443,-0.32106578,-0.2140389
-0.49934712,0.5525058,0.8659562,-0.10592598,-0.8183527,0.77358997,0.5124735,0.41189373,0.28250813,-0.20493862,-0.28925082,-0.16173771
-0.60356927,0.59107995,0.9773915,-0.07399493,-0.9385261,0.8529594,0.63800067,0.47321436,0.29945704,-0.21712936,-0.28925082,-0.17668091
-0.75516504,0.50621676,1.0122149,0.07501663,-1.0402112,0.83708555,0.68283176,0.46640092,0.2782709,-0.18462071,-0.2680409,-0.15426612
-0.5372461,0.67594314,0.99828553,-0.16978808,-0.92928195,0.916455,0.68283176,0.4289272,0.23166151,-0.17649354,-0.28925082,-0.13185132
-0.48039764,0.72223216,1.0052502,-0.23365016,-0.90154964,0.9402658,0.68731487,0.40508035,0.19352654,-0.19274788,-0.33167076,-0.13185132
-0.7456903,0.50621676,1.0052502,0.06437295,-1.0309671,0.8291486,0.66041625,0.38464013,0.1850521,-0.22525652,-0.39530066,-0.17668091
-0.69831663,0.5447909,1.0052502,0.011154536,-1.012479,0.8529594,0.65593314,0.34375975,0.096070476,-0.3227825,-0.5172579,-0.37094244
-0.7456903,0.5139316,1.0122149,0.053729266,-1.0402112,0.84502244,0.6424838,0.33013296,0.045223836,-0.37560907,-0.57558537,-0.44565842
-0.793064,0.5370761,1.0679326,0.07501663,-1.1049199,0.88470715,0.5483384,0.24155879,-0.031046122,-0.43656278,-0.55967784,-0.40830043
-0.6509429,0.637369,1.0540031,-0.07399493,-1.021723,0.9243919,0.34211525,0.047376942,-0.19629769,-0.54221594,-0.59679526,-0.39335722
-0.7362156,0.4522129,0.9564973,0.09630401,-0.99399066,0.77358997,0.15382455,-0.10251781,-0.35307488,-0.63974196,-0.6551227,-0.36347082
-0.69831663,0.40592387,0.8798857,0.10694769,-0.92928195,0.71009445,0.046229858,-0.2524126,-0.5183264,-0.7860309,-0.6922401,-0.35599926
-0.72674084,0.32877555,0.83113265,0.18145347,-0.9107938,0.638662,0.010364964,-0.34439346,-0.5861219,-0.8307303,-0.6710301,-0.32611287
-0.77411455,0.2747717,0.82416797,0.24531557,-0.92928195,0.60691416,-0.047915496,-0.40230733,-0.60730803,-0.7738401,-0.63391274,-0.28128326
-0.40459973,0.5525058,0.7963092,-0.15914439,-0.7259117,0.73390526,-0.17344263,-0.41934085,-0.56917304,-0.72101355,-0.50135046,-0.24392529
-0.06350921,0.79938054,0.77541506,-0.52102965,-0.5502737,0.8529594,-0.17344263,-0.38186714,-0.49714032,-0.6234876,-0.3740907,-0.1990957
0.00281395,0.8533844,0.7684504,-0.58489174,-0.51329726,0.8767702,-0.13309462,-0.30351305,-0.3657865,-0.52189803,-0.35818323,-0.16173771
0.031238163,0.8302399,0.7266621,-0.5955354,-0.46707678,0.83708555,-0.047915496,-0.1536183,-0.19206049,-0.38779983,-0.32636824,-0.124379724
-0.025610263,0.8456695,0.78237975,-0.56360435,-0.54102963,0.8767702,0.18968946,0.009903257,-0.07341832,-0.24151085,-0.29455334,-0.087021746
-0.15825658,0.83795464,0.87292093,-0.48909858,-0.66120297,0.9243919,0.3286659,0.1700181,0.036749396,-0.2090022,-0.2680409,-0.06460695
-0.15825658,0.8302399,0.8659562,-0.48909858,-0.66120297,0.916455,0.44522685,0.26540568,0.13844268,-0.20087503,-0.24152842,-0.03472056
-0.21510501,0.7685212,0.85899144,-0.4145928,-0.67969114,0.88470715,0.57523704,0.36419997,0.23166151,-0.17649354,-0.21501596,-0.012305765
-0.35722607,0.6913728,0.88685036,-0.2762249,-0.7721322,0.86089635,0.68283176,0.4800277,0.32488036,-0.1643028,-0.19380601,0.017580625
-0.30037764,0.75309145,0.9007797,-0.3507307,-0.74439985,0.8926441,0.7366292,0.5379416,0.38420144,-0.13992131,-0.18320101,0.05493861
-0.16773131,0.86109924,0.9007797,-0.49974227,-0.67969114,0.9561397,0.7231798,0.57541525,0.4265736,-0.13179414,-0.15668859,0.17448416
0.031238163,0.9999662,0.8798857,-0.7126159,-0.56876194,1.0116982,0.68283176,0.5515684,0.45199695,-0.13179414,-0.1407811,0.20437056
0.1165108,1.0308255,0.8450621,-0.776478,-0.5040532,1.0037613,0.5079904,0.4595875,0.43504804,-0.13179414,-0.11426867,0.24172856
-0.12035764,0.9768218,0.97042674,-0.60617906,-0.7074235,1.051383,0.45419306,0.43574062,0.4180992,-0.14804848,-0.07184874,0.3612741
-0.19615553,0.96139205,1.0191797,-0.5529607,-0.7721322,1.0751939,0.48109174,0.42211387,0.40538752,-0.15617563,-0.029428815,0.31644452
-0.46144816,0.9228179,1.1724031,-0.38266176,-1.0032347,1.1386894,0.4990242,0.40508035,0.38420144,-0.13585772,-0.0029163659,0.27908653
-0.35722607,0.9073882,1.081862,-0.42523646,-0.89230555,1.0751939,0.5573046,0.39486024,0.37572697,-0.13179414,-0.034731306,0.25667176
-0.09193342,0.87652886,0.85899144,-0.5529607,-0.6149824,0.9402658,0.4990242,0.37101334,0.35030368,-0.10741265,-0.08775621,0.21184216
-0.3098524,0.83795464,0.98435616,-0.4039491,-0.8091087,0.98788744,0.4676424,0.36760667,0.33335477,-0.11553982,-0.13017614,0.18942736
-0.3098524,0.822525,0.97042674,-0.39330542,-0.7906204,0.97201353,0.4407437,0.35397986,0.31640592,-0.18055712,-0.17789854,0.15954097
-0.34775135,0.7839508,0.96346205,-0.34008703,-0.8091087,0.9482027,0.37349704,0.34716645,0.29521984,-0.20087503,-0.22562096,0.17448416
-0.395125,0.7608063,0.9773915,-0.30815595,-0.846085,0.9482027,0.45419306,0.33353966,0.2782709,-0.23338369,-0.2680409,0.13712619
-0.40459973,0.729947,0.96346205,-0.2762249,-0.8368409,0.9243919,0.5169566,0.32672626,0.2782709,-0.21712936,-0.24683091,0.12218299
-0.4235492,0.71451735,0.9564973,-0.25493753,-0.8368409,0.908518,0.530406,0.33694637,0.2782709,-0.20087503,-0.22031847,0.13712619
-0.395125,0.6990876,0.92167383,-0.26558122,-0.8091087,0.88470715,0.5438553,0.35738656,0.2740337,-0.18055712,-0.18850352,0.15206937
-0.4235492,0.66051346,0.91470915,-0.21236281,-0.8183527,0.8529594,0.49005795,0.40167364,0.30369422,-0.1643028,-0.15668859,0.21184216
-0.20563027,0.81481016,0.88685036,-0.44652382,-0.6889353,0.9243919,0.4586762,0.40167364,0.31640592,-0.13992131,-0.13547862,0.24172856
-0.025610263,0.93824756,0.8659562,-0.63811016,-0.5872501,0.97201353,0.40936193,0.36419997,0.2782709,-0.11553982,-0.10896617,0.28655812
-0.12983236,0.87652886,0.893815,-0.542317,-0.6519588,0.9561397,0.38246328,0.34035307,0.2528476,-0.19274788,-0.10896617,0.29402974
-0.34775135,0.868814,1.0400739,-0.4039491,-0.86457324,1.035509,0.3600477,0.29947266,0.22742428,-0.17649354,-0.07184874,0.21931376
-0.49934712,0.8302399,1.1166855,-0.29751226,-0.9847466,1.05932,0.3465984,0.2517789,0.1892893,-0.2090022,-0.14608361,0.16701257
-0.4235492,0.80709535,1.0331091,-0.31879964,-0.89230555,1.0037613,0.3152166,0.20749179,0.13844268,-0.30652815,-0.26273838,0.10723979
-0.32880187,0.7839508,0.9495326,-0.3507307,-0.79986453,0.9402658,0.33314905,0.17683151,0.091833256,-0.35935473,-0.2998558,0.06241021
-0.2814282,0.75309145,0.88685036,-0.36137438,-0.7351558,0.8926441,0.44522685,0.20749179,0.040986616,-0.42437205,-0.35818323,0.032523822
-0.21510501,0.73766184,0.82416797,-0.39330542,-0.6519588,0.8529594,0.4721255,0.23133868,0.024037736,-0.4121813,-0.35288075,-0.004834167
-0.3856503,0.7068025,0.92167383,-0.2762249,-0.79986453,0.8926441,0.4676424,0.21089849,0.024037736,-0.4162449,-0.35288075,-0.02724896
-0.5372461,0.6990876,1.0191797,-0.18043177,-0.9477701,0.9402658,0.4676424,0.20749179,0.024037736,-0.4162449,-0.35818323,-0.15426612
-0.49934712,0.66822827,0.97042674,-0.18043177,-0.89230555,0.9005811,0.49454108,0.193865,0.024037736,-0.4121813,-0.35288075,-0.2215105
-0.50882185,0.65279865,0.96346205,-0.16978808,-0.89230555,0.88470715,0.5079904,0.1904583,0.024037736,-0.40405416,-0.33697328,-0.16173771
-0.5656703,0.56793547,0.9286386,-0.07399493,-0.89230555,0.82121164,0.47660863,0.18705161,0.019800514,-0.37560907,-0.3104608,-0.116908126
-0.44249868,0.637369,0.9077444,-0.19107544,-0.8183527,0.84502244,0.4586762,0.20408511,0.036749396,-0.3634183,-0.29455334,-0.06460695
-0.08245868,0.9073882,0.8798857,-0.58489174,-0.62422657,0.9640766,0.4272944,0.24496548,0.12573102,-0.34310043,-0.27864587,-0.012305765
0.0407129,0.93824756,0.82416797,-0.6700412,-0.5317855,0.9482027,0.40487882,0.24155879,0.15115432,-0.3227825,-0.2521334,0.017580625
-0.20563027,0.87652886,0.942568,-0.48909858,-0.7259117,0.98788744,0.40039572,0.24155879,0.15962876,-0.31059176,-0.2521334,0.03999542
-0.40459973,0.8533844,1.0679326,-0.37201804,-0.9107938,1.0434461,0.40039572,0.24155879,0.19776374,-0.29027385,-0.27334335,0.05493861
-0.48039764,0.7916657,1.0679326,-0.2762249,-0.9477701,1.0116982,0.40039572,0.24155879,0.163866,-0.298401,-0.27334335,0.084824994
-0.52777135,0.77623606,1.0888268,-0.24429385,-0.9847466,1.0196352,0.4272944,0.24155879,0.14691712,-0.29433742,-0.27334335,0.09229659
-0.37617555,0.83795464,1.0331091,-0.37201804,-0.8738174,1.0196352,0.48109174,0.2790325,0.13420545,-0.298401,-0.27334335,0.06241021
-0.41407448,0.81481016,1.0400739,-0.32944334,-0.89230555,1.0037613,0.5169566,0.29606596,0.100307696,-0.3268461,-0.27864587,0.032523822
-0.55619556,0.7685212,1.102756,-0.21236281,-1.012479,1.0196352,0.5124735,0.2756258,0.12996824,-0.3268461,-0.2680409,0.010109027
-0.50882185,0.7453767,1.0470384,-0.23365016,-0.9477701,0.9799505,0.5124735,0.27221906,0.17657766,-0.3674819,-0.3157633,-0.012305765
-0.49934712,0.6913728,0.9913209,-0.20171914,-0.90154964,0.916455,0.5393722,0.24837218,0.14267989,-0.4081177,-0.35818323,-0.04966375
-0.48039764,0.683658,0.97042674,-0.21236281,-0.8830614,0.9005811,0.5528215,0.24837218,0.12996824,-0.37967265,-0.3104608,-0.04966375
-0.44249868,0.6065096,0.8659562,-0.16978808,-0.7906204,0.8053378,0.52143973,0.24496548,0.113019355,-0.37560907,-0.2998558,-0.019777361
-0.34775135,0.67594314,0.8659562,-0.2762249,-0.74439985,0.83708555,0.49005795,0.25859228,0.0791216,-0.3634183,-0.27334335,-0.019777361
-0.30037764,0.81481016,0.9564973,-0.39330542,-0.7813763,0.9640766,0.5079904,0.28243917,0.12996824,-0.34716398,-0.24152842,0.0026374296
-0.27195343,0.75309145,0.8798857,-0.37201804,-0.7259117,0.8926441,0.44970995,0.2517789,0.04946106,-0.39999056,-0.28925082,0.017580625
-0.21510501,0.72223216,0.81023854,-0.38266176,-0.64271474,0.83708555,0.3600477,0.227932,-0.047995,-0.4121813,-0.2998558,0.017580625
-0.15825658,0.6913728,0.74755627,-0.39330542,-0.578006,0.7815269,0.38694638,0.18364489,-0.022571683,-0.40405416,-0.28925082,-0.004834167
-0.16773131,0.65279865,0.71273273,-0.36137438,-0.5595178,0.7418422,0.37798017,0.17342481,0.011326077,-0.37967265,-0.2680409,-0.042192157
-0.16773131,0.6219393,0.68487394,-0.32944334,-0.54102963,0.71009445,0.3690139,0.14276451,0.011326077,-0.37560907,-0.26273838,-0.057135347
-0.16773131,0.6065096,0.6709446,-0.32944334,-0.5317855,0.69422054,0.39142948,0.1700181,0.06640993,-0.35122755,-0.24152842,-0.09449334
-0.15825658,0.5756503,0.63612103,-0.30815595,-0.49480912,0.65453583,0.3510815,0.18705161,0.04946106,-0.33497325,-0.24683091,-0.116908126
-0.1393071,0.56793547,0.6152269,-0.30815595,-0.4763209,0.638662,0.44970995,0.28925258,0.10454491,-0.31465533,-0.2521334,-0.13185132
-0.64146817,0.52936125,0.9495326,-0.010132829,-0.9477701,0.8053378,0.47660863,0.31309947,0.163866,-0.24151085,-0.24683091,-0.15426612
-0.8120135,0.52936125,1.081862,0.08566032,-1.1141641,0.88470715,0.83525765,0.5617885,0.29521984,-0.19681145,-0.44302306,-0.27381167
-0.36670083,0.75309145,0.9495326,-0.31879964,-0.8183527,0.9323288,0.929403,1.0727934,1.1130033,0.5752691,0.2516032,0.084824994
1.082934,1.6943015,0.7266621,-1.7769843,0.041348927,1.2815543,-0.19585821,0.30969277,1.6935024,2.1925747,2.4839516,1.7883493
4.1906476,2.8283823,-0.5269842,-4.299537,2.3893514,1.1545632,-2.1191132,-1.3561829,1.7655351,3.826135,5.1617093,3.9625843
5.431839,2.3192031,-1.9059951,-4.650779,3.9146283,0.10688673,-4.468264,-3.9384608,-1.2132305,1.3920491,3.915624,3.8654532
4.076951,1.2545557,-1.8642069,-3.1500192,3.2213204,-0.41695154,-4.6834536,-5.273887,-5.0987616,-3.3460875,-0.496048,1.5343149
2.4472961,0.95367724,-0.93790156,-2.0324326,1.816217,-0.043915197,-2.692952,-3.2434943,-3.937763,-3.3013883,-1.598966,0.27908653
0.7039445,0.868814,0.26699182,-0.9999954,0.16152227,0.5989772,-1.0386833,-1.2573887,-1.6030548,-1.5215393,-0.9679696,0.12218299
-0.3382766,0.683658,0.8659562,-0.2868686,-0.74439985,0.84502244,-0.21827376,-0.39208725,-0.6793408,-0.8794933,-0.77177745,-0.09449334
-0.58461976,0.40592387,0.7963092,0.053729266,-0.8183527,0.6624728,0.032780528,0.047376942,-0.22595823,-0.48532578,-0.496048,-0.18415251
-0.60356927,0.46764258,0.8659562,0.011154536,-0.8738174,0.73390526,0.23003747,0.18364489,-0.21324658,-0.4162449,-0.54907286,-0.24392529
-0.55619556,0.50621676,0.8659562,-0.031420194,-0.846085,0.75771606,0.26141927,0.21771191,-0.09460442,-0.2780831,-0.47483802,-0.29622647
-0.793064,0.4753574,1.0122149,0.10694769,-1.0586994,0.82121164,0.33763212,0.2517789,-0.09884164,-0.30652815,-0.48014048,-0.36347082
-0.9636093,0.4985019,1.1584737,0.19209714,-1.2435814,0.916455,0.4676424,0.36760667,0.036749396,-0.26182875,-0.44832557,-0.29622647
-0.88781136,0.48307225,1.0888268,0.1601661,-1.1511405,0.8688333,0.4317775,0.33353966,0.07488438,-0.24557443,-0.40590563,-0.24392529
-0.85938716,0.4985019,1.0748973,0.13887875,-1.1326523,0.86089635,0.44970995,0.34716645,0.045223836,-0.22932011,-0.44832557,-0.20656729
-0.75516504,0.5370761,1.0400739,0.053729266,-1.0586994,0.8688333,0.44522685,0.34375975,0.036749396,-0.19681145,-0.51195544,-0.13932292
-0.5940945,0.62965417,0.99828553,-0.10592598,-0.95701426,0.8926441,0.44522685,0.34035307,0.007088857,-0.19681145,-0.5172579,-0.18415251
-0.7172661,0.5525058,1.0261444,0.011154536,-1.0309671,0.8688333,0.4317775,0.33694637,-0.0013855825,-0.18868428,-0.50135046,-0.2588685
-0.6509429,0.6450838,1.0609678,-0.08463862,-1.021723,0.9323288,0.41384506,0.31991285,-0.026808904,-0.18055712,-0.5437704,-0.33358443
-0.60356927,0.77623606,1.1445444,-0.20171914,-1.0586994,1.051383,0.40936193,0.31650618,-0.052232224,-0.16836637,-0.5437704,-0.36347082
-0.8120135,0.71451735,1.2420502,-0.042063877,-1.2250932,1.0751939,0.38694638,0.29947266,-0.018334463,-0.17649354,-0.57558537,-0.35599926
-0.9257103,0.6913728,1.2977678,0.04308559,-1.3175342,1.0910678,0.38246328,0.29947266,-0.018334463,-0.14398488,-0.6127028,-0.35599926
-0.9446598,0.65279865,1.2838384,0.07501663,-1.3175342,1.0672569,0.3600477,0.2790325,-0.11579052,-0.18868428,-0.5808878,-0.35599926
-0.9162356,0.61422443,1.2281207,0.08566032,-1.2620696,1.0196352,0.1986557,0.22111858,-0.1327394,-0.23338369,-0.5331654,-0.34852764
-0.88781136,0.59107995,1.1863326,0.08566032,-1.2250932,0.9799505,-0.025499934,-0.013943638,-0.3446004,-0.34310043,-0.6127028,-0.29622647
-0.7646398,0.637369,1.1445444,-0.010132829,-1.1326523,0.9799505,-0.19585821,-0.22175227,-0.56917304,-0.5178345,-0.7028451,-0.25139686
-0.8499124,0.52164644,1.0957915,0.117591366,-1.1418964,0.88470715,-0.32586846,-0.32735994,-0.6581546,-0.5665974,-0.63921523,-0.1990957
-0.75516504,0.52164644,1.0261444,0.06437295,-1.0494553,0.8529594,-0.4020814,-0.44659442,-0.7471363,-0.54221594,-0.59149283,-0.15426612
-0.34775135,0.75309145,0.93560326,-0.32944334,-0.7906204,0.916455,-0.48726052,-0.52494854,-0.76832235,-0.4975165,-0.5331654,-0.087021746
-0.23405448,0.7685212,0.8659562,-0.4039491,-0.69817936,0.8926441,-0.5948552,-0.60670924,-0.80645734,-0.4609443,-0.40590563,0.010109027
-0.27195343,0.7453767,0.87292093,-0.37201804,-0.71666753,0.8767702,-0.69348365,-0.61692935,-0.75984794,-0.37560907,-0.2680409,0.084824994
-0.16773131,0.7916657,0.8380974,-0.45716754,-0.64271474,0.88470715,-0.72038233,-0.5828624,-0.683578,-0.22119294,-0.124873646,0.21184216
0.021763425,0.95367724,0.8450621,-0.6700412,-0.5502737,0.97201353,-0.69348365,-0.5351686,-0.53527534,-0.066776834,-0.08245372,0.3313877
0.2681066,1.0848293,0.78237975,-0.8935585,-0.39312398,1.0037613,-0.64416945,-0.4431877,-0.40815872,0.0023040667,-0.08775621,0.33885932
0.17335923,1.0848293,0.85899144,-0.8509838,-0.48556498,1.0434461,-0.5276085,-0.27625945,-0.30646542,0.07138496,-0.07184874,0.28655812
-0.12983236,1.0385404,1.0331091,-0.6487538,-0.753644,1.1228155,-0.35725027,-0.08207762,-0.10307886,0.18110168,-0.061243758,0.21931376
-0.12983236,0.9845365,0.98435616,-0.60617906,-0.71666753,1.0672569,-0.21827376,0.0030898575,0.011326077,0.23799184,-0.055941273,0.15206937
-0.30037764,0.9305327,1.0609678,-0.4784549,-0.8553291,1.0831308,-0.1555102,0.09166403,0.06217271,0.26237333,-0.13547862,0.084824994
-0.43302396,0.8842437,1.1166855,-0.37201804,-0.95701426,1.0910678,-0.10171284,0.1904583,0.12573102,0.2501826,-0.17259604,0.04746702
-0.44249868,0.868814,1.1097207,-0.3507307,-0.9477701,1.0751939,-0.05239861,0.23474538,0.16810322,0.25830975,-0.17259604,0.0026374296
-0.45197344,0.8456695,1.0957915,-0.34008703,-0.9477701,1.05932,0.032780528,0.31650618,0.1892893,0.25424615,-0.19380601,-0.019777361
-0.44249868,0.822525,1.0679326,-0.31879964,-0.92928195,1.0275722,0.073128544,0.38464013,0.23589872,0.25424615,-0.19910851,-0.06460695
-0.48039764,0.80709535,1.081862,-0.2868686,-0.9477701,1.0275722,-0.0075674863,0.38804686,0.29945704,0.3192635,-0.18850352,-0.07955015
-0.44249868,0.7916657,1.0400739,-0.29751226,-0.9107938,1.0037613,-0.18689197,0.2790325,0.32488036,0.33551782,-0.20441099,-0.116908126
-0.37617555,0.80709535,1.0052502,-0.3507307,-0.8553291,0.98788744,-0.25413868,0.23133868,0.31640592,0.31113634,-0.24152842,-0.16173771
-0.30037764,0.7916657,0.93560326,-0.37201804,-0.7721322,0.9402658,-0.07929728,0.34035307,0.32064313,0.30707273,-0.2521334,-0.14679451
-0.44249868,0.8533844,1.0957915,-0.34008703,-0.9477701,1.05932,0.005881851,0.39826694,0.32064313,0.28269124,-0.28925082,-0.2364537
-0.55619556,0.9228179,1.2420502,-0.32944334,-1.0956758,1.178374,0.0596792,0.4595875,0.31640592,0.27050048,-0.27864587,-0.24392529
-0.6793671,0.7839508,1.2002618,-0.16978808,-1.1326523,1.0831308,0.1672739,0.5243148,0.35030368,0.30300915,-0.24683091,-0.20656729
-0.5467208,0.8842437,1.2002618,-0.30815595,-1.0679436,1.1386894,0.17624012,0.5209081,0.35877812,0.3192635,-0.22031847,-0.1990957
-0.32880187,1.0308255,1.1724031,-0.5316733,-0.9385261,1.2021849,0.15382455,0.5004679,0.3291176,0.29894555,-0.19380601,-0.16920932
-0.2909029,1.0693997,1.1793678,-0.574248,-0.92928195,1.2259958,0.14485833,0.4834344,0.31640592,0.294882,-0.14608361,-0.17668091
-0.08245868,1.2082667,1.1515089,-0.7871217,-0.8091087,1.2736174,0.122442774,0.46640092,0.29521984,0.27862766,-0.17259604,-0.16173771
-0.1108829,1.1234035,1.102756,-0.7126159,-0.7906204,1.2021849,0.10451032,0.44255403,0.2740337,0.26643693,-0.22562096,-0.2364537
-0.19615553,1.0153959,1.0609678,-0.5955354,-0.79986453,1.1228155,0.122442774,0.4527741,0.29521984,0.33145422,-0.21501596,-0.2364537
-0.21510501,0.9459624,1.0122149,-0.5316733,-0.7721322,1.05932,0.11795966,0.4561808,0.2909826,0.33145422,-0.2521334,-0.20656729
-0.2814282,0.83795464,0.9564973,-0.42523646,-0.7721322,0.97201353,0.08209476,0.4289272,0.26979652,0.27862766,-0.24152842,-0.33358443
-0.32880187,0.77623606,0.942568,-0.3507307,-0.7906204,0.9402658,0.050712973,0.41530046,0.26132205,0.24611901,-0.20971349,-0.35599926
-0.575145,0.5987948,0.96346205,-0.08463862,-0.92003787,0.86089635,0.0238143,0.33013296,0.15539156,0.15265661,-0.2521334,-0.39335722
-0.9351851,0.3210607,0.9773915,0.298534,-1.1049199,0.7180314,-0.0075674863,0.20408511,0.015563298,0.04700347,-0.39530066,-0.6025619
-0.8688619,0.35192004,0.9564973,0.24531557,-1.0586994,0.72596836,-0.07033106,0.17342481,-0.0013855825,0.022621978,-0.45362806,-0.6623347
-0.5656703,0.6990876,1.0470384,-0.16978808,-0.9755025,0.9561397,-0.17344263,0.1700181,-0.0013855825,0.042939886,-0.38469568,-0.58014715
-0.4898724,0.8456695,1.1236502,-0.30815595,-0.99399066,1.0751939,-0.22723998,0.12913771,-0.03952056,0.01043123,-0.4218131,-0.58014715
-0.46144816,0.80709535,1.0679326,-0.30815595,-0.9385261,1.0196352,-0.21827376,0.13935782,-0.009860023,0.055130634,-0.33697328,-0.490488
-0.46144816,0.822525,1.081862,-0.30815595,-0.9477701,1.035509,-0.24068932,0.08485063,-0.07341832,0.026685556,-0.38469568,-0.49795955
-0.25300395,0.89967334,0.99828553,-0.4784549,-0.7906204,1.0275722,-0.19137508,0.13595112,0.045223836,0.11608436,-0.33697328,-0.4232436
-0.6509429,0.868814,1.2559795,-0.23365016,-1.1511405,1.1625001,-0.07481417,0.2517789,0.07488438,0.09170287,-0.44832557,-0.6025619
-1.1531041,0.6913728,1.4718852,0.17080978,-1.5393927,1.194248,0.22555435,0.64354926,0.4180992,0.30300915,-0.55967784,-0.8715395
-0.09193342,1.1619778,1.1166855,-0.74454695,-0.7906204,1.2339327,0.041746747,0.9569656,1.435032,1.704945,1.0151618,0.29402974
2.5704677,2.465785,0.33663884,-3.1500192,1.030468,1.464104,-1.1597272,0.34035307,2.7485702,4.28532,4.276193,2.610225
5.3181415,3.4609988,-0.78467816,-5.3745494,3.1103911,1.329176,-3.257824,-1.7718002,1.7867212,4.480372,5.633631,4.1867323
4.4559402,2.3114884,-1.1886308,-4.097307,2.9532416,0.5116708,-4.925542,-4.997945,-3.539464,-0.90793836,1.4552685,2.4981508
2.163054,0.8533844,-0.81950164,-1.7982718,1.5943584,-0.028041307,-4.185828,-5.038825,-5.607228,-3.9759429,-2.0125601,0.06241021
1.0355603,1.1388332,0.26699182,-1.3618807,0.32791612,0.73390526,-2.2536068,-2.258958,-2.751341,-2.0254233,-1.3338414,-0.31864128
-0.36670083,1.0925442,1.2559795,-0.5529607,-1.012479,1.2736174,-0.7965953,-0.63396287,-0.98018336,-0.7332043,-0.9043397,-0.46060163
-0.6319935,0.8533844,1.2350855,-0.23365016,-1.1234081,1.1386894,-0.19585821,-0.0071302387,-0.28527933,-0.18055712,-0.6869376,-0.72210747
-0.61304396,0.8919586,1.2559795,-0.26558122,-1.1326523,1.178374,-0.11516218,0.15639131,-0.1115533,-0.07084041,-0.62330776,-0.95372695
-0.6604177,0.8302399,1.2350855,-0.20171914,-1.1511405,1.1228155,-0.05239861,0.21771191,-0.1115533,-0.07084041,-0.6710301,-0.9686702
-0.64146817,0.83795464,1.2281207,-0.2230065,-1.1326523,1.1307524,-0.0075674863,0.23474538,-0.11579052,0.0063676494,-0.6180052,-0.93131226
-0.97308403,0.7916657,1.4300971,-0.010132829,-1.4192194,1.2180587,0.122442774,0.24837218,-0.13697663,-0.00988668,-0.6657276,-0.98361343
-0.9162356,0.79938054,1.3952736,-0.031420194,-1.3822429,1.2021849,0.050712973,0.23474538,-0.1115533,0.067321375,-0.62330776,-0.9985567
-0.97308403,0.73766184,1.3743794,0.032441907,-1.391487,1.1625001,-0.12412841,0.1700181,-0.14121383,0.04700347,-0.6551227,-1.0134997
-0.9636093,0.71451735,1.3534853,0.04308559,-1.3729988,1.1307524,-0.29448667,0.15639131,-0.13697663,-0.0017595151,-0.63921523,-0.9387839
-1.0204577,0.62965417,1.3116971,0.13887875,-1.3729988,1.0751939,-0.42898005,0.10869752,-0.21748379,-0.050522503,-0.6445177,-0.92384064
-0.85938716,0.7839508,1.339556,-0.06335125,-1.3082901,1.1625001,-0.42898005,0.088257335,-0.20053492,-0.07084041,-0.6445177,-0.85659623
-0.58461976,1.0308255,1.3534853,-0.39330542,-1.1881168,1.2974283,-0.4110476,0.054190338,-0.26833043,-0.10334907,-0.63921523,-0.8491246
-0.6793671,0.9459624,1.3534853,-0.2762249,-1.2250932,1.2498066,-0.4065645,0.020123351,-0.33188874,-0.083031155,-0.63921523,-0.95372695
-0.66989243,0.95367724,1.3534853,-0.2868686,-1.2250932,1.2577436,-0.38414893,0.0030898575,-0.30222818,-0.12366699,-0.6445177,-1.0359145
-0.72674084,0.89967334,1.3465207,-0.2230065,-1.2528255,1.2339327,-0.38414893,-0.024163734,-0.3191771,-0.19274788,-0.7081475,-1.0658009
-0.77411455,0.8842437,1.3674147,-0.18043177,-1.2805579,1.2259958,-0.4110476,-0.034383833,-0.3657865,-0.22119294,-0.78238237,-1.0882158
-0.87833667,0.8533844,1.4161676,-0.10592598,-1.3729988,1.2498066,-0.35725027,-0.06845082,-0.49714032,-0.3268461,-0.8778272,-1.1629318
-0.9446598,0.7685212,1.3883089,-0.010132829,-1.3822429,1.186311,-0.44242936,-0.157025,-0.5861219,-0.44468996,-0.93615466,-1.1629318
-0.6888419,0.9073882,1.3325913,-0.24429385,-1.2250932,1.2259958,-0.45139563,-0.18768528,-0.6115452,-0.47719863,-0.90964216,-1.103159
-0.5656703,0.9691069,1.2908031,-0.3507307,-1.1418964,1.2339327,-0.5500241,-0.33076665,-0.79798293,-0.54221594,-0.8990372,-1.0882158
-0.55619556,0.9228179,1.2350855,-0.32944334,-1.0956758,1.1704371,-0.68451744,-0.44659442,-0.89543897,-0.5787882,-0.8354073,-1.0433862
-0.6509429,0.81481016,1.2141913,-0.20171914,-1.1234081,1.1069416,-0.63968635,-0.45000115,-0.91238785,-0.52189803,-0.86191976,-1.0209714
-0.4898724,1.0616848,1.3186618,-0.4678112,-1.1141641,1.2974283,-0.747281,-0.51132166,-0.88272727,-0.5178345,-0.75056744,-0.9761418
-0.395125,1.1311184,1.3116971,-0.5529607,-1.0679436,1.329176,-0.7114162,-0.4806614,-0.7471363,-0.43249923,-0.57558537,-0.93131226
-0.5467208,1.0385404,1.339556,-0.4145928,-1.1511405,1.2974283,-0.72486544,-0.4568145,-0.72171295,-0.2780831,-0.5172579,-0.90142584
-0.44249868,1.3162744,1.5136734,-0.6593975,-1.2250932,1.5355365,-0.8190108,-0.4363743,-0.6115452,-0.17649354,-0.2998558,-0.84165305
-0.5182966,1.2314113,1.4927794,-0.56360435,-1.2435814,1.479978,-0.84142643,-0.31713986,-0.46324256,-0.11553982,-0.3104608,-0.82670987
-0.49934712,1.1774074,1.4300971,-0.5316733,-1.1973609,1.4244194,-0.8459095,-0.21834557,-0.38697258,-0.09522191,-0.38999817,-0.7519939
-0.69831663,0.9845365,1.4022384,-0.2868686,-1.2805579,1.3053652,-0.8145277,-0.18427859,-0.35731202,-0.074903995,-0.41120812,-0.77440864
-0.6793671,0.9305327,1.3325913,-0.26558122,-1.2158492,1.2339327,-0.8010784,-0.1502116,-0.3446004,-0.06271325,-0.5278629,-0.8341814
-0.31932712,1.2159816,1.3325913,-0.6593975,-1.0402112,1.3847345,-0.626237,-0.116144605,-0.32341427,-0.03833176,-0.5331654,-0.8864826
-0.46144816,1.1234035,1.3534853,-0.52102965,-1.1234081,1.3450499,-0.5365748,-0.06504412,-0.30646542,-0.03833176,-0.5543754,-1.0359145
-0.575145,1.0385404,1.3534853,-0.39330542,-1.1788726,1.3053652,-0.585889,-0.020757036,-0.28527933,-0.083031155,-0.6127028,-1.0060282
-0.66989243,0.9459624,1.3534853,-0.2868686,-1.2250932,1.2577436,-0.5589903,0.02693675,-0.26409322,-0.06271325,-0.59149283,-0.9985567
-0.7172661,0.9151031,1.3534853,-0.23365016,-1.2528255,1.2418697,-0.5410578,0.08485063,-0.2386699,-0.034268174,-0.5649803,-1.103159
-0.7362156,0.89967334,1.36045,-0.21236281,-1.2713138,1.2418697,-0.5141592,0.09166403,-0.21748379,-0.0058230977,-0.5331654,-1.0658009
-0.60356927,0.9845365,1.339556,-0.34008703,-1.1881168,1.2656806,-0.48726052,0.13595112,-0.19206049,0.018558394,-0.50135046,-1.028443
-0.35722607,1.2777003,1.4161676,-0.6913285,-1.1141641,1.464104,-0.47381115,0.193865,-0.17087437,0.06325779,-0.48014048,-0.98361343
-0.34775135,1.385708,1.5067087,-0.7658344,-1.1696285,1.5672842,-0.46932808,0.1700181,-0.16239995,0.09170287,-0.496048,-0.9387839
-0.37617555,1.3471339,1.4858147,-0.7232596,-1.1696285,1.5355365,-0.47829428,0.14957792,-0.16663715,0.06325779,-0.5172579,-0.9088974
-0.395125,1.3162744,1.47885,-0.6806848,-1.1788726,1.5117257,-0.46932808,0.12573102,-0.16239995,0.05106705,-0.50665295,-0.8715395
-0.40459973,1.2777003,1.4509913,-0.6593975,-1.1603845,1.4879149,-0.47829428,0.101884134,-0.17087437,0.018558394,-0.5172579,-0.8715395
-0.46144816,1.246841,1.4579558,-0.5955354,-1.1973609,1.472041,-0.49622673,0.08485063,-0.16239995,0.0063676494,-0.50665295,-0.8192383
-0.46144816,1.2159816,1.4300971,-0.58489174,-1.1788726,1.4402933,-0.61727077,0.03375015,-0.17934881,-0.03833176,-0.5172579,-0.92384064
-0.4898724,1.1696926,1.4161676,-0.542317,-1.1788726,1.4085454,-0.82797706,-0.017350337,-0.28951657,-0.13179414,-0.5543754,-1.0134997
-0.52777135,1.146548,1.4231323,-0.49974227,-1.206605,1.4006084,-0.8503926,-0.08889102,-0.37426093,-0.20087503,-0.63921523,-1.0807441
-0.52777135,1.1002591,1.3883089,-0.45716754,-1.1788726,1.3529868,-0.7921121,-0.09570442,-0.36154926,-0.24963802,-0.7028451,-1.2227044
-0.47092292,1.1542629,1.3952736,-0.5316733,-1.1603845,1.3847345,-0.7562472,-0.020757036,-0.28951657,-0.23744728,-0.6710301,-1.1853465
-0.3098524,1.2622706,1.3743794,-0.70197225,-1.0679436,1.4323564,-0.706933,0.020123351,-0.22172102,-0.2090022,-0.6445177,-1.1479886
-0.30037764,1.2622706,1.36045,-0.7126159,-1.0402112,1.4164824,-0.6800343,0.02693675,-0.21748379,-0.19681145,-0.6180052,-1.1255738
-0.27195343,1.2545557,1.3325913,-0.7232596,-1.021723,1.4006084,-0.64416945,0.016716653,-0.28527933,-0.16023922,-0.5808878,-1.0807441
-0.2909029,1.2236965,1.3186618,-0.6806848,-1.021723,1.3767977,-0.6217539,0.009903257,-0.30222818,-0.16023922,-0.5649803,-1.0658009
-0.2624787,1.2236965,1.2977678,-0.70197225,-0.99399066,1.3688607,-0.585889,-0.00031684048,-0.28527933,-0.19681145,-0.59149283,-1.0658009
-0.23405448,1.2159816,1.2768736,-0.7126159,-0.9662584,1.3529868,-0.56795657,-0.013943638,-0.29799095,-0.22119294,-0.57558537,-1.0658009
-0.35722607,1.1774074,1.3256265,-0.6168228,-1.0494553,1.3609238,-0.5814058,-0.017350337,-0.28527933,-0.22525652,-0.58619034,-1.0658009
-0.27195343,1.192837,1.2699089,-0.6700412,-0.9755025,1.3371129,-0.585889,-0.04801063,-0.30222818,-0.23744728,-0.6551227,-1.0658009
-0.40459973,1.1619778,1.3465207,-0.574248,-1.0956758,1.3688607,-0.585889,-0.07526422,-0.3657865,-0.298401,-0.63391274,-1.0583293
-0.5372461,1.146548,1.4300971,-0.48909858,-1.2158492,1.4006084,-0.5769228,-0.10592451,-0.38697258,-0.3187189,-0.6127028,-1.0433862
-0.43302396,1.146548,1.36045,-0.5529607,-1.1141641,1.3609238,-0.61727077,-0.12977141,-0.37849817,-0.3187189,-0.6445177,-0.9985567
-0.47092292,1.1156888,1.3534853,-0.51038593,-1.1234081,1.3450499,-0.7114162,-0.18768528,-0.46324256,-0.37560907,-0.72405505,-1.0134997
-0.47092292,1.0616848,1.3047324,-0.4784549,-1.0956758,1.2894913,-0.787629,-0.31032646,-0.6030708,-0.48938936,-0.85661733,-1.1330453
-0.5182966,1.007681,1.2838384,-0.4145928,-1.1049199,1.2498066,-0.7383148,-0.27966616,-0.5437497,-0.49345297,-0.8831297,-1.1255738
-0.5940945,0.9691069,1.3116971,-0.32944334,-1.1696285,1.2418697,-0.7024499,-0.26263267,-0.47595423,-0.46500787,-0.8354073,-1.0583293
-0.69831663,0.89967334,1.3256265,-0.2230065,-1.2250932,1.2180587,-0.64865255,-0.24219248,-0.48442864,-0.46500787,-0.8194999,-1.0658009
-0.7077914,0.87652886,1.3047324,-0.21236281,-1.2158492,1.194248,-0.5948552,-0.2047188,-0.47595423,-0.4081177,-0.7558699,-0.98361343
-0.793064,0.822525,1.3325913,-0.11656966,-1.2805579,1.178374,-0.5500241,-0.21493888,-0.50561476,-0.43656278,-0.7611725,-1.0060282
-0.7362156,0.8456695,1.3047324,-0.16978808,-1.2250932,1.178374,-0.42449692,-0.06504412,-0.35307488,-0.35935473,-0.6922401,-1.028443
-0.75516504,0.8302399,1.3047324,-0.14850071,-1.2343373,1.1704371,-0.25413868,0.0133099565,-0.3191771,-0.48532578,-0.99448204,-1.2301761
-0.69831663,0.822525,1.2559795,-0.18043177,-1.1788726,1.1386894,0.010364964,0.5209081,0.3121687,0.055130634,-0.74526495,-1.2077614
0.5144498,1.5091454,0.98435616,-1.3299495,-0.40236807,1.329176,-0.545541,0.32672626,1.2189337,1.7293265,1.3121012,0.21931376
3.1579015,2.843812,0.23913303,-3.735422,1.381744,1.5990322,-2.069799,-0.9575993,2.1002755,4.2893834,4.7109976,2.759657
5.2044454,3.5304322,-0.6384194,-5.353262,2.9624856,1.4561671,-4.176862,-3.1481068,0.4562342,3.63921,5.2518516,3.940169
3.5937393,1.9874653,-0.84736043,-3.3841803,2.3153982,0.5354817,-5.414201,-5.8019257,-4.8487654,-2.3058107,0.38946792,1.6837469
1.442974,0.56793547,-0.5409136,-1.2022253,1.0582004,-0.012167422,-4.132031,-4.933217,-5.7428184,-4.4432545,-2.3625245,-0.6623347
0.38180345,0.89967334,0.5316505,-0.8296964,-0.17126545,0.765653,-2.110147,-2.2453313,-2.7810018,-2.3058107,-1.5936633,-0.9686702
-0.22457975,1.1619778,1.2141913,-0.6806848,-0.92003787,1.2894913,-0.9579873,-0.971226,-1.3742448,-1.2655336,-1.3179339,-1.0732726
0.031238163,1.246841,1.0957915,-0.8829149,-0.71666753,1.2656806,-0.5724397,-0.35802025,-0.7174758,-0.72507715,-0.983877,-1.1255738
-0.2814282,1.1619778,1.2559795,-0.6487538,-0.9662584,1.3133022,-0.43346316,-0.24559918,-0.5818847,-0.63567835,-0.9414571,-1.1778749
-0.3856503,1.0616848,1.2420502,-0.52102965,-1.021723,1.2498066,-0.31690225,-0.1706518,-0.4462937,-0.46500787,-0.88843226,-1.1554601
-0.32880187,1.0771146,1.2141913,-0.56360435,-0.9662584,1.2418697,-0.2720711,-0.1331781,-0.39968425,-0.4081177,-0.8407098,-1.1106305
-0.34775135,1.0616848,1.2141913,-0.542317,-0.9755025,1.2339327,-0.20034131,-0.11273791,-0.40392148,-0.48532578,-0.8354073,-1.1106305
-0.2624787,1.0771146,1.1654384,-0.5955354,-0.9107938,1.2180587,-0.15102707,-0.08207762,-0.35307488,-0.46500787,-0.7611725,-1.0433862
-0.3098524,1.0616848,1.1863326,-0.5529607,-0.9477701,1.2180587,-0.092746615,-0.08207762,-0.35307488,-0.46907145,-0.76647496,-1.1181021
-0.27195343,1.0771146,1.1724031,-0.58489174,-0.9107938,1.2180587,-0.043432385,-0.04460393,-0.3149399,-0.44468996,-0.7399625,-1.2077614
-0.3382766,1.0385404,1.1793678,-0.5316733,-0.9477701,1.2021849,0.010364964,-0.04119723,-0.29799095,-0.43656278,-0.7558699,-1.2227044
-0.3856503,0.99225134,1.1793678,-0.4678112,-0.9755025,1.178374,0.073128544,-0.013943638,-0.259856,-0.43656278,-0.74526495,-1.2077614
-0.41407448,0.95367724,1.1654384,-0.42523646,-0.9847466,1.1545632,0.11795966,-0.0071302387,-0.22172102,-0.42843562,-0.75056744,-1.2227044
-0.52777135,0.9073882,1.2141913,-0.32944334,-1.0679436,1.1545632,0.11795966,-0.00031684048,-0.17934881,-0.39592698,-0.7611725,-1.2077614
-0.6319935,0.86109924,1.2350855,-0.24429385,-1.1326523,1.1466264,0.055196084,-0.08207762,-0.30222818,-0.53815234,-0.86722225,-1.2376477
-0.66989243,0.83795464,1.2490149,-0.20171914,-1.1603845,1.1466264,-0.003084374,-0.18768528,-0.40815872,-0.61942405,-0.9679696,-1.327307
-0.49934712,0.8302399,1.1236502,-0.29751226,-0.99399066,1.0672569,-0.047915496,-0.2558193,-0.49714032,-0.70882285,-1.0422045,-1.3721365
-0.47092292,0.83795464,1.102756,-0.31879964,-0.9662584,1.05932,-0.083780386,-0.35120684,-0.6200197,-0.8591754,-1.1164393,-1.454324
-0.66989243,0.83795464,1.2490149,-0.20171914,-1.1603845,1.1386894,-0.11964529,-0.4261542,-0.7344246,-0.91200197,-1.1058344,-1.4319093
-0.55619556,0.8302399,1.1584737,-0.26558122,-1.0494553,1.0910678,-0.17792575,-0.4704413,-0.78103405,-0.9282563,-1.0581119,-1.3347784
-0.4235492,0.87652886,1.1097207,-0.37201804,-0.9477701,1.0831308,-0.23620622,-0.51813513,-0.79798293,-0.9201291,-1.0315994,-1.2750057
-0.48039764,0.7608063,1.0400739,-0.25493753,-0.92928195,0.98788744,-0.3303516,-0.62374276,-0.89543897,-0.9607649,-0.99448204,-1.1704032
-0.27195343,0.86109924,0.98435616,-0.44652382,-0.7906204,1.0037613,-0.36173335,-0.66121644,-0.89120173,-0.92419267,-0.8990372,-1.0583293
-0.1393071,0.95367724,0.96346205,-0.574248,-0.7074235,1.035509,-0.31690225,-0.61692935,-0.8445923,-0.81041235,-0.74526495,-0.9761418
-0.2814282,0.79938054,0.9286386,-0.4039491,-0.753644,0.9402658,-0.29448667,-0.61011595,-0.7471363,-0.6925685,-0.5331654,-0.93131226
0.059662376,1.0693997,0.92167383,-0.7658344,-0.578006,1.0672569,-0.2631049,-0.5283552,-0.5437497,-0.5544067,-0.4271156,-0.90142584
0.2965308,1.2082667,0.87292093,-0.9999954,-0.43934447,1.1148785,-0.20034131,-0.36824036,-0.3827354,-0.42437205,-0.4271156,-0.86406785
0.18283395,1.1156888,0.87292093,-0.8722712,-0.49480912,1.0751939,-0.07929728,-0.26263267,-0.23443267,-0.30652815,-0.40590563,-0.82670987
0.17335923,1.1156888,0.8798857,-0.8722712,-0.5040532,1.0751939,0.08657787,-0.1468049,-0.12850218,-0.26995593,-0.39530066,-0.80429506
-0.044559732,1.0616848,0.98435616,-0.7126159,-0.67969114,1.1069416,0.1986557,-0.024163734,-0.12002774,-0.2740195,-0.3740907,-0.7594655
-0.20563027,1.0385404,1.0888268,-0.60617906,-0.82759684,1.1466264,0.22107124,-0.034383833,-0.12850218,-0.2740195,-0.39530066,-0.8192383
-0.19615553,1.0308255,1.0679326,-0.60617906,-0.79986453,1.1386894,0.22107124,-0.08207762,-0.12002774,-0.26995593,-0.40060318,-0.916369
-0.1866808,1.0308255,1.0679326,-0.60617906,-0.79986453,1.1307524,0.21658812,-0.1365848,-0.14968827,-0.30652815,-0.4271156,-0.9686702
-0.14878184,1.0308255,1.0400739,-0.62746644,-0.76288813,1.1228155,0.19417256,-0.1331781,-0.13697663,-0.34310043,-0.45893055,-1.0359145
-0.14878184,1.0231106,1.0331091,-0.62746644,-0.76288813,1.1148785,0.1986557,-0.058230728,-0.047995,-0.3187189,-0.4218131,-0.98361343
-0.17720605,1.0385404,1.0679326,-0.6168228,-0.7906204,1.1386894,0.1986557,-0.024163734,-0.0056228032,-0.31059176,-0.39530066,-0.96119857
-0.21510501,1.0153959,1.081862,-0.58489174,-0.82759684,1.1386894,0.19417256,0.009903257,0.019800514,-0.29027385,-0.3687882,-0.92384064
-0.22457975,0.99225134,1.0540031,-0.56360435,-0.8183527,1.1069416,0.2434868,0.05078364,0.04946106,-0.2740195,-0.33167076,-0.8864826
-0.23405448,0.96139205,1.0400739,-0.5316733,-0.79986453,1.0831308,0.27038547,0.07803724,0.0791216,-0.26589236,-0.34227577,-0.85659623
-0.24352922,0.9305327,1.0191797,-0.51038593,-0.7906204,1.05932,0.33763212,0.11891762,0.096070476,-0.23744728,-0.38469568,-0.84165305
-0.24352922,0.9151031,0.99828553,-0.49974227,-0.7813763,1.035509,0.40487882,0.17342481,0.13420545,-0.22119294,-0.3687882,-0.9088974
-0.31932712,0.8533844,1.0052502,-0.4145928,-0.8183527,1.0116982,0.42281127,0.18705161,0.17234044,-0.19681145,-0.35288075,-0.916369
-0.23405448,0.9228179,1.0052502,-0.51038593,-0.7813763,1.0434461,0.49454108,0.22111858,0.17657766,-0.16836637,-0.33697328,-0.93131226
-0.32880187,0.8456695,1.0052502,-0.4039491,-0.8368409,1.0037613,0.49005795,0.20408511,0.16810322,-0.15617563,-0.32636824,-0.9686702
-0.35722607,0.822525,1.0052502,-0.37201804,-0.8368409,0.98788744,0.4990242,0.2143052,0.20200098,-0.11553982,-0.3104608,-1.0209714
-0.10140816,1.0385404,1.0052502,-0.6700412,-0.71666753,1.1069416,0.5393722,0.23815209,0.2740337,-0.12366699,-0.2998558,-1.028443
-0.12035764,0.9999662,0.99828553,-0.62746644,-0.7259117,1.0831308,0.5035073,0.10869752,0.25708482,-0.19274788,-0.29455334,-0.98361343
-0.1393071,0.96139205,0.97042674,-0.58489174,-0.7074235,1.0434461,0.44522685,0.06441044,0.22318707,-0.2537016,-0.3104608,-0.9686702
-0.16773131,0.93824756,0.97042674,-0.5529607,-0.7259117,1.035509,0.40039572,0.06441044,0.20200098,-0.26995593,-0.37939322,-0.93131226
-0.20563027,0.8842437,0.9564973,-0.49974227,-0.7351558,0.9958244,0.37798017,0.047376942,0.163866,-0.24151085,-0.3634857,-0.916369
-0.17720605,0.8842437,0.9286386,-0.52102965,-0.7074235,0.9799505,0.37798017,0.03375015,0.15539156,-0.22525652,-0.33167076,-0.95372695
-0.14878184,0.9151031,0.93560326,-0.5529607,-0.69817936,1.0037613,0.38246328,0.081443936,0.14691712,-0.19681145,-0.3157633,-0.95372695
-0.07298395,0.95367724,0.9077444,-0.6168228,-0.64271474,1.0037613,0.3690139,0.15979801,0.19352654,-0.17649354,-0.28394833,-0.95372695
-0.044559732,0.9151031,0.85899144,-0.60617906,-0.59649426,0.9561397,0.41832814,0.15639131,0.21471263,-0.18462071,-0.2680409,-0.95372695
-0.09193342,0.8533844,0.8380974,-0.542317,-0.60573834,0.916455,0.49454108,0.15639131,0.18081486,-0.19681145,-0.24683091,-0.96119857
-0.07298395,0.80709535,0.78237975,-0.52102965,-0.5595178,0.8529594,0.5035073,0.15979801,0.17234044,-0.18868428,-0.24683091,-0.9462554
-0.1108829,0.7608063,0.7684504,-0.4678112,-0.5595178,0.82121164,0.53488904,0.15639131,0.15115432,-0.20493862,-0.24683091,-0.99108505
-0.016135523,0.7608063,0.69880337,-0.52102965,-0.4763209,0.7894638,0.5617878,0.15979801,0.13420545,-0.21306579,-0.24152842,-1.0807441
0.13546027,0.87652886,0.68487394,-0.6806848,-0.39312398,0.83708555,0.5797202,0.15639131,0.113019355,-0.21306579,-0.2521334,-1.1106305
-0.10140816,0.8533844,0.8380974,-0.5316733,-0.60573834,0.916455,0.5976527,0.15639131,0.06217271,-0.2090022,-0.22031847,-1.103159
-0.19615553,0.7453767,0.81023854,-0.4039491,-0.63347065,0.84502244,0.5842033,0.193865,0.036749396,-0.21712936,-0.24683091,-1.103159
-0.2624787,0.66822827,0.78934443,-0.31879964,-0.6519588,0.7894638,0.53488904,0.11210422,-0.009860023,-0.34310043,-0.3687882,-1.1778749
-0.3098524,0.59107995,0.76148564,-0.23365016,-0.66120297,0.73390526,0.5035073,0.0133099565,-0.047995,-0.38373622,-0.38999817,-1.2227044
-0.32880187,0.59107995,0.7684504,-0.2230065,-0.6704471,0.7418422,0.4586762,0.03034345,-0.090367205,-0.3634183,-0.35288075,-1.1554601
-0.60356927,0.50621676,0.9007797,-0.010132829,-0.90154964,0.77358997,0.42281127,0.006496557,-0.12426496,-0.4081177,-0.3634857,-1.1479886
-0.34775135,0.7068025,0.893815,-0.29751226,-0.7721322,0.8767702,0.41832814,0.037156846,-0.06070666,-0.33903682,-0.32106578,-1.0956874
-0.1108829,0.9073882,0.9077444,-0.56360435,-0.6519588,0.9799505,0.3690139,-0.00372354,-0.07341832,-0.35122755,-0.33697328,-1.0658009
-0.15825658,0.86109924,0.893815,-0.49974227,-0.6704471,0.9482027,0.41384506,0.047376942,0.0028516361,-0.29027385,-0.2998558,-1.140517
-0.14878184,0.8919586,0.91470915,-0.5316733,-0.67969114,0.9799505,0.44970995,0.04056355,-0.014097243,-0.28621027,-0.28394833,-1.1778749
-0.1393071,0.86109924,0.8798857,-0.52102965,-0.6519588,0.9482027,0.4990242,0.10529082,0.08759604,-0.26182875,-0.26273838,-1.1853465
-0.10140816,0.8919586,0.88685036,-0.5529607,-0.64271474,0.9640766,0.5842033,0.18364489,0.15962876,-0.2090022,-0.24152842,-1.1629318
-0.22457975,0.8456695,0.9286386,-0.45716754,-0.7259117,0.9640766,0.9518185,0.46980762,0.28250813,-0.23744728,-0.50135046,-1.34225
0.16388449,0.9768218,0.76148564,-0.7658344,-0.42085627,0.9323288,0.9563016,0.9058652,1.16385,0.6849859,0.28341812,-0.87901103
1.4808729,1.8331684,0.566474,-2.0962949,0.34640434,1.2656806,-0.38414893,-0.11273791,1.7909584,2.5948694,2.8180084,0.9963599
4.256971,2.8823862,-0.53394884,-4.374043,2.4263275,1.178374,-2.5494924,-1.7820203,2.091801,4.492563,5.670748,3.2303674
5.498162,2.3192031,-1.9477835,-4.6827097,3.9700928,0.083075896,-4.7596664,-4.292758,-1.2089932,1.5139565,4.0481863,3.0435774
3.5653152,0.75309145,-1.9408187,-2.522042,3.0271943,-0.71061844,-4.517578,-5.3965282,-5.2004547,-3.5126944,-0.5278629,0.50323445
1.9167109,0.41363874,-1.0354073,-1.3512369,1.6128466,-0.3772668,-2.2670562,-3.052719,-3.611497,-3.1063364,-1.4080763,-0.7519939
0.8365908,0.7453767,0.05805078,-0.97870797,0.36489254,0.41642752,-0.7517641,-1.209695,-1.4505148,-1.4727763,-0.77707994,-0.90142584
0.18283395,0.89967334,0.6779092,-0.7339032,-0.35614756,0.84502244,0.0955441,-0.39208725,-0.60730803,-0.85104823,-0.54907286,-1.1181021
0.13546027,0.868814,0.68487394,-0.6700412,-0.39312398,0.83708555,0.42281127,0.0030898575,-0.10731608,-0.43656278,-0.3104608,-1.1255738
-0.044559732,0.79938054,0.75452095,-0.52102965,-0.5225414,0.83708555,0.5842033,0.088257335,-0.081892766,-0.44875357,-0.3740907,-1.1554601
-0.21510501,0.7608063,0.8450621,-0.4039491,-0.6704471,0.8688333,0.6469669,0.21771191,0.15115432,-0.33090967,-0.2998558,-1.1330453
-0.2624787,0.6990876,0.83113265,-0.34008703,-0.67969114,0.83708555,0.6200682,0.1802382,0.10878213,-0.39186338,-0.3157633,-1.140517
-0.21510501,0.66051346,0.74755627,-0.34008703,-0.60573834,0.765653,0.70076424,0.20749179,0.14267989,-0.33090967,-0.27864587,-1.140517
-0.22457975,0.62965417,0.73362684,-0.30815595,-0.60573834,0.73390526,0.732146,0.19727169,0.12996824,-0.34716398,-0.2521334,-1.1330453
-0.16773131,0.5602206,0.6291563,-0.2868686,-0.5040532,0.638662,0.7635278,0.2756258,0.12573102,-0.33090967,-0.27334335,-1.1629318
-0.25300395,0.56793547,0.69880337,-0.24429385,-0.5872501,0.6862836,0.7545616,0.27221906,0.14267989,-0.3187189,-0.3687882,-1.2899488
-0.31932712,0.683658,0.8520268,-0.29751226,-0.7259117,0.83708555,0.732146,0.23474538,0.10878213,-0.39592698,-0.39530066,-1.2974205
-0.27195343,0.52164644,0.6709446,-0.21236281,-0.578006,0.65453583,0.7904265,0.23815209,0.096070476,-0.39186338,-0.35818323,-1.2675341
-0.3856503,0.39820907,0.6430857,-0.06335125,-0.6149824,0.56722945,0.8307745,0.193865,0.045223836,-0.39999056,-0.41651064,-1.3945513
-0.50882185,0.35192004,0.6918386,0.04308559,-0.7074235,0.5751664,0.8083589,0.20067841,0.036749396,-0.39186338,-0.44302306,-1.4393808
-0.64146817,0.24391235,0.6918386,0.19209714,-0.7721322,0.5116708,0.66489935,0.10529082,-0.052232224,-0.47313502,-0.496048,-1.4842105
-0.66989243,0.20533817,0.6779092,0.23467189,-0.7813763,0.48786,0.45419306,-0.04801063,-0.15392551,-0.590979,-0.5225604,-1.4991536
-0.7646398,0.09733046,0.6500504,0.3517524,-0.8091087,0.41642752,0.39591262,-0.08207762,-0.27256766,-0.6844413,-0.59679526,-1.5439832
-0.6509429,0.17447881,0.63612103,0.24531557,-0.74439985,0.44817528,0.39591262,-0.1706518,-0.4166331,-0.7860309,-0.7187525,-1.6261708
-0.395125,0.35963488,0.6152269,-0.020776512,-0.60573834,0.5354817,0.37349704,-0.23878577,-0.42510757,-0.8063488,-0.6551227,-1.5140969
-0.45197344,0.35963488,0.65701514,0.0005108561,-0.66120297,0.5592925,0.36453083,-0.22856568,-0.4547681,-0.7860309,-0.5808878,-1.4169661
-0.3098524,0.4753574,0.6500504,-0.15914439,-0.5872501,0.61485106,0.3510815,-0.30691975,-0.48442864,-0.7819673,-0.5172579,-1.3497217
0.031238163,0.6990876,0.6082622,-0.49974227,-0.38387984,0.70215744,0.34211525,-0.38186714,-0.5310381,-0.7575858,-0.4377206,-1.2675341
0.10703606,0.73766184,0.58736813,-0.574248,-0.33765933,0.71009445,0.31969967,-0.4261542,-0.5606986,-0.7494586,-0.35288075,-1.1778749
0.1165108,0.7068025,0.5525446,-0.5529607,-0.30992702,0.67834663,0.30625036,-0.4908815,-0.5013775,-0.72507715,-0.22031847,-1.0583293
0.22073291,0.75309145,0.5246858,-0.6487538,-0.24521828,0.67834663,0.29280102,-0.4568145,-0.44205648,-0.5747246,-0.066546254,-0.9761418
0.23968239,0.73766184,0.4898623,-0.6487538,-0.21748598,0.65453583,0.27486858,-0.35461354,-0.3191771,-0.39592698,0.09783095,-0.916369
0.30600557,0.7839508,0.48289758,-0.7126159,-0.17126545,0.67834663,0.26141927,-0.21493888,-0.18782325,-0.26995593,0.15085585,-0.8715395
0.35337925,0.8302399,0.4898623,-0.776478,-0.15277724,0.70215744,0.3465984,-0.04801063,-0.018334463,-0.22525652,0.1826708,-0.8192383
0.25863186,0.73766184,0.47593287,-0.6487538,-0.19899777,0.65453583,0.5393722,0.09166403,0.16810322,-0.23744728,0.17206582,-0.77440864
0.15440975,0.66051346,0.48289758,-0.542317,-0.2544624,0.61485106,0.62455136,0.1904583,0.21047541,-0.2090022,0.108435936,-0.7295791
0.06913711,0.59107995,0.47593287,-0.44652382,-0.2821947,0.5751664,0.5438553,0.17342481,0.17234044,-0.21712936,0.06071352,-0.7594655
0.012288689,0.5447909,0.48289758,-0.38266176,-0.31917113,0.5513556,0.5124735,0.15639131,0.18081486,-0.24557443,0.007688615,-0.84165305
-0.025610263,0.5139316,0.48289758,-0.34008703,-0.33765933,0.5354817,0.5079904,0.12573102,0.14267989,-0.3268461,-0.029428815,-0.8491246
-0.06350921,0.4753574,0.47593287,-0.29751226,-0.3469034,0.5196078,0.5169566,0.11210422,0.14691712,-0.3674819,-0.066546254,-0.8341814
-0.12035764,0.4444981,0.4898623,-0.23365016,-0.39312398,0.5037339,0.5079904,0.08485063,0.121493794,-0.34716398,-0.10366368,-0.84165305
-0.1393071,0.40592387,0.4689682,-0.20171914,-0.37463576,0.47198611,0.5079904,0.10869752,0.100307696,-0.3227825,-0.15668859,-0.84165305
-0.16773131,0.42135355,0.5037917,-0.20171914,-0.42085627,0.5037339,0.57523704,0.20749179,0.17234044,-0.2780831,-0.14608361,-0.84165305
-0.12035764,0.39820907,0.4550388,-0.20171914,-0.35614756,0.4640492,0.67386556,0.2517789,0.19352654,-0.28621027,-0.13017614,-0.82670987
-0.17720605,0.42906842,0.5246858,-0.19107544,-0.43934447,0.5196078,0.8397407,0.40508035,0.36725253,-0.2090022,-0.066546254,-0.77440864
-0.07298395,0.3904942,0.40628585,-0.2230065,-0.30992702,0.4323014,0.812842,0.34375975,0.25708482,-0.24557443,-0.066546254,-0.7370507
0.08808658,0.4522129,0.34360355,-0.37201804,-0.18050955,0.42436448,0.8756056,0.4289272,0.38843867,-0.06271325,0.0023861253,-0.7071643
-0.27195343,0.6065096,0.74755627,-0.26558122,-0.63347065,0.7418422,0.9921665,0.46299422,0.4265736,-0.07084041,0.012991106,-0.63991994
-0.23405448,0.65279865,0.76148564,-0.31879964,-0.62422657,0.765653,1.3015014,0.8479512,0.76978844,0.1079572,-0.018823838,-0.6548631
0.07861185,0.81481016,0.68487394,-0.60617906,-0.42085627,0.8053378,1.1535586,1.2431283,1.6723162,1.1766793,1.0734892,-0.06460695
2.0398824,1.9257466,0.23913303,-2.4688237,0.8270977,1.1307524,0.068645425,0.63332915,2.6807747,3.5376205,4.1701436,2.1395142
4.740183,2.9903939,-0.79164284,-4.7252846,2.8330681,1.0831308,-1.6932176,-1.3187093,1.9901078,4.2893834,6.089645,3.9326978
4.2759204,1.5940084,-1.7040187,-3.5012608,3.2120764,-0.14709546,-4.0199533,-5.328394,-3.8784418,-1.2939787,2.2082222,2.40102
2.7599626,0.4522129,-1.6204423,-1.8621336,2.4170835,-0.6868076,-3.701652,-5.5873036,-6.175015,-4.6951966,-1.5088235,-0.02724896
1.5092971,0.62965417,-0.5409136,-1.2873747,1.0951767,0.019580351,-1.4018154,-2.1567574,-2.5225315,-2.330192,-0.8301048,-0.62497675
0.3912782,0.46764258,0.1346625,-0.542317,0.10605765,0.31324726,-0.16895953,-0.60670924,-0.76832235,-1.0014007,-0.26273838,-0.6100335
0.17335923,0.49078706,0.31574473,-0.43588015,-0.12504494,0.4323014,0.5169566,0.14957792,0.028274955,-0.4975165,-0.061243758,-0.62497675
0.031238163,0.41363874,0.35753295,-0.30815595,-0.22673008,0.41642752,0.68731487,0.33694637,0.23589872,-0.3227825,0.050108537,-0.7669371
-0.016135523,0.35963488,0.33663884,-0.24429385,-0.22673008,0.3767428,0.74111223,0.34035307,0.22318707,-0.2740195,-0.013521346,-0.85659623
-0.06350921,0.33649036,0.35056823,-0.19107544,-0.26370648,0.3688059,0.85767317,0.47321436,0.41386196,-0.20087503,0.044806045,-0.77440864
-0.15825658,0.24391235,0.33663884,-0.07399493,-0.30992702,0.31324726,0.8262914,0.41870716,0.32488036,-0.26182875,-0.008218855,-0.7370507
-0.16773131,0.24391235,0.34360355,-0.07399493,-0.30992702,0.32118422,0.88905495,0.43914732,0.42233643,-0.19681145,0.03950356,-0.6847495
-0.1866808,0.22848268,0.34360355,-0.052707564,-0.31917113,0.31324726,0.8756056,0.39826694,0.35877812,-0.22525652,-0.013521346,-0.62497675
-0.06350921,0.3210607,0.33663884,-0.18043177,-0.2544624,0.36086893,0.85319006,0.46640092,0.2909826,-0.2090022,-0.02412633,-0.6772779
-0.08245868,0.33649036,0.36449766,-0.19107544,-0.2821947,0.3767428,0.8307745,0.43233392,0.26132205,-0.2577652,-0.07184874,-0.8491246
-0.19615553,0.32877555,0.4411094,-0.11656966,-0.39312398,0.41642752,0.7993927,0.36760667,0.28674537,-0.2577652,-0.08245372,-0.8864826
-0.044559732,0.5139316,0.5037917,-0.32944334,-0.35614756,0.54341865,0.7814602,0.32672626,0.2528476,-0.24963802,-0.04533629,-0.8715395
-0.15825658,0.43678322,0.5107564,-0.21236281,-0.42085627,0.5116708,0.7545616,0.27221906,0.17657766,-0.30652815,-0.13547862,-0.8864826
-0.2624787,0.28248653,0.44807404,-0.052707564,-0.43010035,0.4005536,0.7231798,0.22452529,0.12996824,-0.3715455,-0.18850352,-0.8715395
-0.25300395,0.24391235,0.40628585,-0.031420194,-0.39312398,0.35293198,0.69179803,0.14276451,0.015563298,-0.45688072,-0.26273838,-0.92384064
-0.395125,0.08190079,0.36449766,0.1601661,-0.43934447,0.24975169,0.66938245,0.088257335,-0.090367205,-0.570661,-0.37939322,-0.96119857
-0.43302396,-0.018392075,0.30181533,0.25595927,-0.41161215,0.16244534,0.62455136,0.05078364,-0.18358605,-0.6722506,-0.40060318,-0.95372695
-0.61304396,-0.049251415,0.39932114,0.37303978,-0.5595178,0.20213005,0.68283176,0.0133099565,-0.20053492,-0.7006957,-0.3634857,-0.95372695
-0.48039764,0.08190079,0.42717996,0.21338452,-0.5225414,0.2814995,0.66489935,-0.030977132,-0.24714434,-0.70475924,-0.33697328,-0.916369
-0.08245868,0.24391235,0.28092125,-0.11656966,-0.23597418,0.2814995,0.5393722,-0.10933121,-0.33612594,-0.7697766,-0.32106578,-0.916369
0.13546027,0.33649036,0.2112742,-0.30815595,-0.078824416,0.28943643,0.5035073,-0.20812549,-0.40815872,-0.81447595,-0.29455334,-0.9088974
0.18283395,0.33649036,0.16948602,-0.34008703,-0.023359798,0.26562563,0.44522685,-0.2830729,-0.4674798,-0.8063488,-0.27334335,-0.80429506
0.22073291,0.32877555,0.1346625,-0.3507307,0.022860719,0.24181476,0.39591262,-0.29669964,-0.4547681,-0.7697766,-0.18850352,-0.6996927
0.30600557,0.35963488,0.099838994,-0.42523646,0.07832534,0.24181476,0.38246328,-0.27285275,-0.40815872,-0.5991061,-0.029428815,-0.62497675
0.2870561,0.29020137,0.051086087,-0.36137438,0.10605765,0.17831922,0.3690139,-0.22515897,-0.2810421,-0.46907145,0.0713185,-0.61750513
0.61867183,0.5525058,0.04412138,-0.7339032,0.27245152,0.3053103,0.3690139,-0.1604317,-0.14121383,-0.39592698,0.17206582,-0.6025619
0.504975,0.5139316,0.092874296,-0.63811016,0.1800105,0.31324726,0.34211525,-0.06504412,-0.047995,-0.31465533,0.2409982,-0.58014715
0.05018764,0.24391235,0.17645071,-0.20171914,-0.09731262,0.22594088,0.40487882,0.06441044,0.07064715,-0.29433742,0.21448575,-0.56520396
0.25863186,0.41363874,0.17645071,-0.43588015,0.0043725115,0.31324726,0.5169566,0.17342481,0.18081486,-0.26995593,0.20388077,-0.32611287
0.37232873,0.41363874,0.099838994,-0.49974227,0.11530176,0.26562563,0.57523704,0.24496548,0.23166151,-0.24557443,0.1879733,-0.012305765
0.17335923,0.41363874,0.24609771,-0.38266176,-0.078824416,0.34499502,0.68283176,0.32331955,0.28674537,-0.22525652,0.17206582,0.25667176
-0.035085,0.41363874,0.39235646,-0.26558122,-0.2821947,0.4323014,0.812842,0.43574062,0.40538752,-0.111476235,0.20918325,0.5181777
-0.0066607846,0.48307225,0.4411094,-0.32944334,-0.30068293,0.49579695,0.88905495,0.53112817,0.49013188,0.014494813,0.30993056,0.58542204
0.031238163,0.5447909,0.4689682,-0.39330542,-0.30068293,0.5513556,0.9473354,0.58222866,0.55369025,0.06325779,0.38946792,0.65266645
0.07861185,0.4985019,0.39235646,-0.39330542,-0.22673008,0.47992307,1.0773456,0.69124305,0.70623016,0.15265661,0.46370277,0.8245132
0.16388449,0.49078706,0.32967415,-0.43588015,-0.13428904,0.44023836,1.0638963,0.6742096,0.67656964,0.14046587,0.47430778,0.80209833
0.21125817,0.45992777,0.2600271,-0.43588015,-0.06958032,0.38467973,1.0638963,0.73553014,0.75283957,0.22986467,0.45309782,0.7796836
0.24915713,0.45992777,0.23216833,-0.4678112,-0.0326039,0.3688059,1.0414808,0.73553014,0.76978844,0.26237333,0.5114252,0.7946268
0.21125817,0.40592387,0.2112742,-0.4039491,-0.041848008,0.32912114,1.0280315,0.7116833,0.75283957,0.23392825,0.5008202,0.71243924
0.25863186,0.41363874,0.18341543,-0.43588015,-0.0048715915,0.31324726,1.0369977,0.73893684,0.79097456,0.294882,0.5591476,0.89175755
0.15440975,0.31334588,0.1625213,-0.30815595,-0.0326039,0.24975169,1.0549301,0.79344404,0.79097456,0.18516527,0.42658535,0.59289366
0.45760134,0.4444981,0.06501549,-0.56360435,0.1800105,0.25768864,1.1535586,1.3521427,1.6172324,0.94505507,0.77654976,0.69002444
1.622994,1.0308255,-0.2623255,-1.6279728,0.9657593,0.38467973,0.27038547,1.100047,2.6807747,2.9605918,3.104343,2.423435
4.171698,2.0260394,-1.2443484,-3.735422,2.8608005,0.32912114,-1.3793998,-0.32395324,3.0070405,4.7566953,5.9199657,4.635028
5.1191726,1.7328756,-2.1985126,-4.065376,3.9516048,-0.36139292,-3.4774964,-3.8021932,-1.3869566,1.1157256,4.026976,4.41088
3.0821037,-0.11868493,-2.3726301,-1.6492599,3.073415,-1.4090695,-4.306872,-6.27205,-6.4292483,-4.451382,-0.77707994,1.7061616
1.765115,-0.46585256,-1.7179482,-0.6700412,2.0010989,-1.2185829,-2.545009,-3.8158202,-4.4886017,-3.829654,-1.5936633,0.7647404
0.8081666,0.25162718,-0.36679605,-0.62746644,0.64221567,-0.07566297,-0.6307201,-1.2028816,-1.4632264,-1.5865566,-0.51195544,0.9440587
0.25863186,0.5139316,0.27395654,-0.49974227,-0.051092114,0.41642752,0.3600477,-0.19790539,-0.37426093,-0.72914076,-0.1513861,0.74979717
0.2965308,0.4444981,0.19038011,-0.4784549,0.013616616,0.3370581,0.7545616,0.35057315,0.2655593,-0.30246457,0.13494839,0.80209833
-0.0066607846,0.28248653,0.2600271,-0.19107544,-0.18050955,0.28943643,0.929403,0.43574062,0.35877812,-0.26995593,0.19327578,0.6825528
-0.15825658,0.19762333,0.29485065,-0.052707564,-0.2729506,0.26562563,1.0100989,0.57541525,0.47742027,-0.09115832,0.2409982,0.6825528
0.021763425,0.3210607,0.28092125,-0.23365016,-0.18050955,0.32118422,1.0369977,0.57882196,0.49436912,-0.11553982,0.16146083,0.6451948
0.21125817,0.41363874,0.21823893,-0.4039491,-0.041848008,0.3370581,1.0549301,0.6094823,0.549453,-0.03833176,0.15615834,0.6451948
0.1165108,0.29020137,0.17645071,-0.26558122,-0.06033621,0.24975169,1.0683794,0.64354926,0.5664019,-0.018013844,0.23569572,0.697496
0.14493501,0.26705685,0.12769781,-0.26558122,-0.014115697,0.210067,1.0414808,0.6537694,0.6214857,-0.03833176,0.22509073,0.65266645
0.021763425,0.112760134,0.08590959,-0.095282294,-0.051092114,0.10688673,0.7904265,0.52772146,0.52402973,-0.07896758,0.13494839,0.57047886
-0.16773131,-0.0878256,0.03715668,0.14952241,-0.10655673,-0.028041307,0.66041625,0.38464013,0.31640592,-0.20493862,0.03950356,0.48081967
-0.3098524,-0.31155583,-0.053384446,0.39432713,-0.115800835,-0.18678017,0.6424838,0.33353966,0.15962876,-0.33497325,-0.0930587,0.42851847
-0.44249868,-0.3887042,-0.025525637,0.5114077,-0.19899777,-0.210591,0.6424838,0.28584588,0.08759604,-0.42030847,-0.24683091,0.4061037
-0.37617555,-0.21897781,0.08590959,0.36239606,-0.23597418,-0.06772602,0.732146,0.2517789,0.07488438,-0.40405416,-0.30515832,0.3762173
-0.5372461,-0.2652668,0.15555662,0.47947657,-0.36539164,-0.043915197,0.7590447,0.22452529,0.040986616,-0.4081177,-0.2998558,0.35380253
-0.6793671,-0.34241518,0.19038011,0.61784446,-0.4578327,-0.06772602,0.7814602,0.193865,0.011326077,-0.47313502,-0.2998558,0.30897292
-0.60356927,-0.25755197,0.2112742,0.52205133,-0.43010035,-0.012167422,0.7949096,0.1700181,-0.014097243,-0.48126218,-0.30515832,0.3463309
-0.50882185,-0.20354812,0.19038011,0.42625818,-0.37463576,0.0037064643,0.75007844,0.14617121,-0.014097243,-0.5178345,-0.2998558,0.3463309
-0.395125,-0.14954428,0.15555662,0.31982136,-0.29143882,0.011643408,0.732146,0.13254443,-0.04375778,-0.5869154,-0.29455334,0.31644452
-0.41407448,-0.08011076,0.22520362,0.2878903,-0.3469034,0.083075896,0.69179803,0.11551092,-0.10731608,-0.5991061,-0.23092343,0.42851847
-0.3856503,-0.018392075,0.26699182,0.23467189,-0.36539164,0.13863452,0.67386556,0.101884134,-0.1751116,-0.61536044,-0.22031847,0.47334808
-0.19615553,0.051041447,0.18341543,0.07501663,-0.21748598,0.13069755,0.6424838,0.08485063,-0.12426496,-0.53815234,-0.15668859,0.60783684
-0.035085,0.12047497,0.1346625,-0.06335125,-0.10655673,0.13863452,0.63800067,0.061003737,0.019800514,-0.37560907,0.03420107,0.7647404
0.25863186,0.28248653,0.06501549,-0.3507307,0.07832534,0.18625617,0.5842033,0.13595112,0.12996824,-0.22119294,0.27811563,0.95900196
0.58077294,0.4753574,0.002333171,-0.6593975,0.28169563,0.24975169,0.4586762,0.1802382,0.22318707,-0.09928548,0.5061227,1.0860192
0.6281466,0.45992777,-0.039455038,-0.6700412,0.32791612,0.210067,0.3241828,0.1700181,0.28250813,-0.07084041,0.5061227,1.0113031
0.6565708,0.41363874,-0.109102055,-0.6487538,0.39262486,0.14657146,0.3286659,0.227932,0.32064313,-0.07084041,0.43188784,0.97394514
0.55234873,0.2747717,-0.15089026,-0.49974227,0.36489254,0.051328126,0.48109174,0.29265928,0.36725253,-0.083031155,0.37886295,0.9216439
0.3912782,0.08190079,-0.21357258,-0.2762249,0.32791612,-0.07566297,0.5797202,0.36760667,0.38843867,-0.1196034,0.32053554,0.86934274
0.13546027,-0.07239592,-0.16481966,-0.020776512,0.1800105,-0.13122156,0.65145,0.38123342,0.3799642,-0.16023922,0.3046281,0.83198476
-0.17720605,-0.2421223,-0.08820795,0.26660293,-0.023359798,-0.17090629,0.70076424,0.37101334,0.37148976,-0.2090022,0.27811563,0.7871552
0.00281395,-0.22669263,-0.20660788,0.1601661,0.14303407,-0.23440182,0.768011,0.41870716,0.35877812,-0.20087503,0.26751065,0.7572688
0.1165108,-0.18811846,-0.25536078,0.07501663,0.226231,-0.23440182,0.8173252,0.44596076,0.36301535,-0.1643028,0.2409982,0.7199108
0.059662376,-0.18040362,-0.20660788,0.08566032,0.17076638,-0.20265406,0.83525765,0.4595875,0.38843867,-0.14398488,0.23039322,0.697496
0.10703606,-0.12639977,-0.19267848,0.032441907,0.18925458,-0.17090629,0.86663944,0.4800277,0.40962476,-0.111476235,0.23039322,0.6451948
0.059662376,-0.12639977,-0.15785497,0.053729266,0.13378997,-0.1550324,0.9025043,0.510688,0.45199695,-0.09115832,0.25690567,0.7273824
0.14493501,-0.041536577,-0.14392556,-0.052707564,0.17076638,-0.099473804,0.90698737,0.5583818,0.49013188,-0.066776834,0.35235047,0.8618711
0.24915713,0.04332661,-0.14392556,-0.16978808,0.2169869,-0.059789076,0.83525765,0.5617885,0.587588,-0.03833176,0.40007287,0.8842859
0.15440975,-0.06468108,-0.17874907,-0.042063877,0.19849868,-0.13122156,0.7949096,0.54134834,0.62572294,-0.013950261,0.3841654,0.86934274
0.14493501,-0.0878256,-0.18571378,-0.020776512,0.18925458,-0.14709546,0.7545616,0.53112817,0.5833508,0.014494813,0.41598037,0.89175755
0.21125817,-0.018392075,-0.17874907,-0.10592598,0.226231,-0.107410744,0.7590447,0.510688,0.57487637,0.042939886,0.46370277,0.9141723
0.22073291,0.0047524325,-0.15785497,-0.12721334,0.2169869,-0.08359992,0.7545616,0.5004679,0.55369025,0.04700347,0.46900526,0.89175755
0.25863186,0.058756284,-0.13696085,-0.19107544,0.2169869,-0.043915197,0.732146,0.5072813,0.5367414,0.018558394,0.46900526,0.8618711
0.32495502,0.09733046,-0.14392556,-0.24429385,0.25396332,-0.028041307,0.74111223,0.5209081,0.51555526,0.0023040667,0.45840028,0.84692794
0.2870561,0.07418595,-0.14392556,-0.21236281,0.226231,-0.043915197,0.7276629,0.54475504,0.48589474,-0.013950261,0.43719035,0.8245132
0.23968239,0.02789694,-0.14392556,-0.14850071,0.2077428,-0.06772602,0.7814602,0.53112817,0.46047136,-0.03833176,0.4424928,0.80956995
0.17335923,-0.018392075,-0.14392556,-0.08463862,0.1800105,-0.09153686,0.8307745,0.5038746,0.4265736,-0.050522503,0.42128283,0.7946268
0.12598553,-0.056966253,-0.14392556,-0.031420194,0.16152227,-0.107410744,0.8262914,0.4834344,0.4011503,-0.13179414,0.3841654,0.74979717
0.07861185,-0.095540434,-0.14392556,0.021798221,0.13378997,-0.13122156,0.7993927,0.4595875,0.3799642,-0.18055712,0.35235047,0.7049676
-0.1108829,-0.2421223,-0.14392556,0.23467189,0.041348927,-0.210591,0.8173252,0.44255403,0.3545409,-0.18868428,0.31523308,0.66760963
-0.12035764,-0.2652668,-0.15089026,0.25595927,0.041348927,-0.21852794,0.85767317,0.4255205,0.3291176,-0.22932011,0.27811563,0.63025165
-0.0066607846,-0.20354812,-0.17874907,0.14952241,0.124545865,-0.20265406,0.7949096,0.40508035,0.30793145,-0.23338369,0.25690567,0.5779505
0.10703606,-0.18040362,-0.24143142,0.06437295,0.2077428,-0.22646488,0.7366292,0.39486024,0.28674537,-0.26182875,0.25690567,0.60783684
0.19230871,-0.11868493,-0.2483961,-0.020776512,0.26320744,-0.20265406,0.7052474,0.37782675,0.25708482,-0.2780831,0.25690567,0.62278
0.23020765,-0.0878256,-0.2483961,-0.06335125,0.28169563,-0.18678017,0.68731487,0.36419997,0.2740337,-0.26995593,0.25690567,0.6003653
0.1165108,-0.15725912,-0.22053729,0.04308559,0.2077428,-0.20265406,0.66489935,0.34716645,0.2782709,-0.26182875,0.25690567,0.57047886
0.13546027,-0.11868493,-0.21357258,0.0005108561,0.2077428,-0.17884323,0.6469669,0.34375975,0.2740337,-0.2537016,0.2516032,0.54806405
0.20178345,-0.06468108,-0.21357258,-0.06335125,0.2447192,-0.1550324,0.62455136,0.34375975,0.2909826,-0.2537016,0.25690567,0.54806405
-0.05403447,-0.2421223,-0.17874907,0.20274083,0.096813545,-0.22646488,0.62455136,0.34375975,0.2909826,-0.30246457,0.2516032,0.45093325
-0.12035764,-0.29612616,-0.17874907,0.2772466,0.059837136,-0.2502757,0.68283176,0.34716645,0.26132205,-0.3187189,0.26220816,0.5331209
-0.09193342,-0.25755197,-0.16481966,0.23467189,0.059837136,-0.22646488,0.69179803,0.33353966,0.23589872,-0.298401,0.2516032,0.6377232
-0.10140816,-0.24983713,-0.15089026,0.23467189,0.059837136,-0.210591,0.75007844,0.40167364,0.35030368,-0.29027385,0.26751065,0.6003653
-0.09193342,-0.21897781,-0.123031475,0.20274083,0.041348927,-0.17884323,0.7904265,0.43233392,0.41386196,-0.2780831,0.33114055,0.6153084
0.059662376,-0.20354812,-0.227502,0.10694769,0.1800105,-0.23440182,0.7545616,0.40508035,0.3799642,-0.26995593,0.32053554,0.6377232
0.20178345,-0.18811846,-0.32500783,0.021798221,0.31867203,-0.2820235,0.75007844,0.39145356,0.36301535,-0.2537016,0.2887206,0.6601381
0.13546027,-0.2421223,-0.32500783,0.09630401,0.28169563,-0.30583432,0.7276629,0.37782675,0.33759198,-0.22932011,0.26751065,0.62278
0.06913711,-0.28841132,-0.3110784,0.17080978,0.23547511,-0.3217082,0.71869665,0.36079326,0.31640592,-0.19274788,0.2463007,0.6153084
0.021763425,-0.27298164,-0.2692902,0.18145347,0.18925458,-0.2899604,0.69179803,0.34035307,0.28674537,-0.23338369,0.21448575,0.57047886
0.1165108,-0.28069648,-0.33893722,0.12823506,0.28169563,-0.33758208,0.66041625,0.32331955,0.28250813,-0.30652815,0.19857828,0.58542204
0.07861185,-0.28069648,-0.3110784,0.14952241,0.2447192,-0.3217082,0.6200682,0.2790325,0.22318707,-0.33090967,0.1243434,0.5256493
0.031238163,-0.27298164,-0.27625492,0.17080978,0.19849868,-0.2978974,0.6021358,0.29265928,0.25708482,-0.28621027,0.13494839,0.50323445
-0.12983236,-0.36555967,-0.227502,0.33046502,0.096813545,-0.31377128,0.5528215,0.21089849,0.15539156,-0.3634183,0.03420107,0.45093325
-0.23405448,-0.4118487,-0.1996432,0.41561452,0.022860719,-0.3217082,0.53488904,0.26540568,0.22318707,-0.298401,0.06071352,0.39863208
-0.32880187,-0.43499318,-0.15089026,0.4901203,-0.06033621,-0.31377128,0.7231798,0.34716645,0.23166151,-0.3227825,0.018293597,0.4061037
-0.45197344,-0.43499318,-0.06731384,0.5539824,-0.17126545,-0.2582127,0.9921665,0.84113777,0.67656964,-0.04645892,-0.018823838,0.24920014
0.4481266,0.105045296,-0.23446669,-0.31879964,0.36489254,-0.07566297,0.5662709,0.9126786,1.5579114,1.1929337,1.4817809,1.2578658
2.7978616,1.2236965,-0.951831,-2.4156053,2.0010989,0.083075896,-0.86832505,-0.37505373,2.0070567,3.1434531,4.392848,3.4844017
5.270768,1.663442,-2.3726301,-4.1079507,4.145731,-0.496321,-3.0695333,-2.408853,0.96046335,3.3263142,5.6601434,4.874119
4.7117586,0.3827794,-3.1178532,-2.9052145,4.3675895,-1.5757452,-4.625173,-4.994538,-3.4928548,-1.3021058,1.9749125,3.2602537
2.816811,-0.5892899,-2.6024654,-1.1702943,3.1103911,-1.7821058,-3.3699017,-4.4971595,-5.014017,-3.98407,-1.254304,1.0934906
1.4619235,-0.31927067,-1.3627483,-0.5955354,1.6128466,-0.93285286,-1.2538728,-1.8024606,-2.264061,-2.224539,-0.72405505,0.7946268
0.16388449,-0.28069648,-0.37376073,0.10694769,0.32791612,-0.353456,-0.092746615,-0.5147284,-0.8445923,-1.1395625,-0.2998558,0.6377232
0.09756132,-0.24983713,-0.297149,0.117591366,0.2447192,-0.2978974,0.5976527,0.2143052,-0.026808904,-0.5178345,0.03950356,0.6451948
0.10703606,-0.21897781,-0.27625492,0.09630401,0.23547511,-0.2661496,0.74559534,0.44255403,0.3121687,-0.34310043,0.16676334,0.66760963
0.06913711,-0.19583328,-0.227502,0.10694769,0.18925458,-0.22646488,0.812842,0.53112817,0.35030368,-0.23744728,0.12964588,0.63025165
0.10703606,-0.15725912,-0.21357258,0.053729266,0.19849868,-0.20265406,0.8083589,0.63332915,0.46047136,-0.11553982,0.20388077,0.6750812
0.031238163,-0.14954428,-0.15785497,0.09630401,0.11530176,-0.16296934,0.67834866,0.5549751,0.41386196,-0.18462071,0.13494839,0.6153084
0.00281395,-0.18811846,-0.17178439,0.13887875,0.11530176,-0.19471712,0.5976527,0.42211387,0.36725253,-0.18055712,0.13494839,0.57047886
-0.12035764,-0.34241518,-0.22053729,0.30917767,0.087569445,-0.2978974,0.5976527,0.35738656,0.28674537,-0.30652815,0.0713185,0.4882913
-0.06350921,-0.28069648,-0.20660788,0.23467189,0.10605765,-0.2661496,0.59316957,0.39486024,0.28674537,-0.30246457,0.05541103,0.4359901
-0.3856503,-0.5121416,-0.17874907,0.5752697,-0.06958032,-0.36139292,0.5617878,0.36419997,0.2528476,-0.3634183,0.012991106,0.35380253
-0.35722607,-0.5044267,-0.19267848,0.5539824,-0.051092114,-0.36932987,0.63351756,0.40848702,0.23166151,-0.40405416,-0.008218855,0.31644452
-0.21510501,-0.19583328,-0.018560935,0.25595927,-0.08806852,-0.107410744,0.7366292,0.4561808,0.21047541,-0.39186338,-0.05063878,0.27908653
-0.30037764,-0.31927067,-0.06731384,0.39432713,-0.09731262,-0.20265406,0.71421355,0.43914732,0.1850521,-0.39999056,-0.08245372,0.24172856
-0.16773131,-0.36555967,-0.21357258,0.3517524,0.059837136,-0.30583432,0.68731487,0.40508035,0.15539156,-0.39592698,-0.11957116,0.21931376
-0.09193342,-0.25755197,-0.16481966,0.23467189,0.059837136,-0.22646488,0.66938245,0.38464013,0.113019355,-0.39186338,-0.15668859,0.17448416
-0.06350921,-0.25755197,-0.18571378,0.2240282,0.096813545,-0.23440182,0.63800067,0.34716645,0.08335882,-0.43656278,-0.15668859,0.18195577
-0.2814282,-0.4195635,-0.17178439,0.45818922,-0.023359798,-0.31377128,0.62455136,0.29606596,0.015563298,-0.52596164,-0.19380601,0.21184216
-0.30037764,-0.44270805,-0.17874907,0.47947657,-0.023359798,-0.3217082,0.5797202,0.18364489,-0.12426496,-0.6072333,-0.17789854,0.19689897
-0.22457975,-0.38098934,-0.17874907,0.39432713,0.013616616,-0.2978974,0.5573046,0.074630536,-0.20053492,-0.6722506,-0.14608361,0.21184216
-0.23405448,-0.38098934,-0.17874907,0.39432713,0.0043725115,-0.2899604,0.47660863,0.006496557,-0.28527933,-0.6925685,-0.13017614,0.19689897
-0.15825658,-0.3269855,-0.17874907,0.31982136,0.05059303,-0.27408653,0.3465984,-0.10592451,-0.3657865,-0.7413315,-0.098361194,0.21184216
-0.15825658,-0.31927067,-0.17178439,0.30917767,0.041348927,-0.2661496,0.2076219,-0.17405848,-0.3276515,-0.7128864,-0.077151224,0.28655812
0.021763425,-0.28069648,-0.2692902,0.18145347,0.18925458,-0.2978974,0.050712973,-0.22515897,-0.30646542,-0.54627955,0.0713185,0.42851847
0.17335923,-0.27298164,-0.37376073,0.09630401,0.33716026,-0.353456,-0.16895953,-0.27966616,-0.27680486,-0.40405416,0.2516032,0.59289366
0.3912782,-0.2421223,-0.49912536,-0.052707564,0.52204233,-0.40107766,-0.36621648,-0.32054657,-0.24714434,-0.35122755,0.357653,0.6153084
0.61867183,-0.25755197,-0.6871723,-0.16978808,0.762389,-0.5201318,-0.39311513,-0.28988627,-0.22172102,-0.29027385,0.49551773,0.6377232
0.42917717,-0.40413386,-0.6802076,0.04308559,0.66070384,-0.5995012,-0.2631049,-0.1365848,-0.086129986,-0.19274788,0.5538451,0.6451948
0.25863186,-0.4118487,-0.5618077,0.13887875,0.5035541,-0.5280688,-0.083780386,0.009903257,0.08335882,-0.09928548,0.5167277,0.6003653
0.25863186,-0.34241518,-0.49912536,0.09630401,0.45733356,-0.46457317,0.10451032,0.16320471,0.23166151,-0.03020459,0.5008202,0.59289366
0.24915713,-0.303841,-0.45037246,0.07501663,0.42035717,-0.40901458,0.23003747,0.31650618,0.35030368,-0.0017595151,0.47430778,0.5405925
0.2681066,-0.24983713,-0.42251363,0.021798221,0.41111305,-0.36139292,0.29280102,0.39486024,0.4180992,0.01043123,0.45309782,0.54806405
0.25863186,-0.20354812,-0.37376073,0.0005108561,0.37413663,-0.31377128,0.3465984,0.44596076,0.4647086,0.03074914,0.42658535,0.58542204
0.22073291,-0.20354812,-0.3459019,0.021798221,0.33716026,-0.2978974,0.36453083,0.49024782,0.46894583,0.014494813,0.3947704,0.54806405
0.0407129,-0.2421223,-0.2483961,0.13887875,0.18925458,-0.2661496,0.4721255,0.5617885,0.4816575,-0.013950261,0.357653,0.51070607
-0.05403447,-0.21897781,-0.15089026,0.19209714,0.07832534,-0.19471712,0.5573046,0.6162957,0.5197925,-0.03833176,0.32583803,0.4882913
-0.07298395,-0.15725912,-0.08124325,0.14952241,0.022860719,-0.12328464,0.63351756,0.6673962,0.5833508,-0.066776834,0.28341812,0.45093325
-0.06350921,-0.110970095,-0.053384446,0.117591366,0.0043725115,-0.08359992,0.66041625,0.69464976,0.62572294,-0.09522191,0.26220816,0.4135753
-0.025610263,-0.056966253,-0.03249034,0.053729266,0.0043725115,-0.043915197,0.66041625,0.7184967,0.60029966,-0.14804848,0.27811563,0.3836889
-0.40459973,-0.0029624044,0.28788593,0.2240282,-0.38387984,0.16244534,0.7859434,0.78663063,0.5918252,-0.15211205,0.26220816,0.33885932
-0.5372461,-0.15725912,0.2600271,0.4049708,-0.43010035,0.06720201,0.6155851,0.68783635,0.57063913,-0.15617563,0.25690567,0.31644452
-0.2814282,-0.29612616,-0.060349148,0.36239606,-0.09731262,-0.18678017,0.4362606,0.5651952,0.55369025,-0.24151085,0.25690567,0.27908653
-0.19615553,-0.25755197,-0.09517266,0.2878903,-0.0326039,-0.18678017,0.45419306,0.62992245,0.5452158,-0.2780831,0.25690567,0.24172856
-0.07298395,-0.21897781,-0.14392556,0.20274083,0.059837136,-0.19471712,0.4362606,0.6503627,0.52402973,-0.2577652,0.25690567,0.31644452
0.00281395,-0.19583328,-0.17874907,0.13887875,0.11530176,-0.19471712,0.4317775,0.6162957,0.511318,-0.24557443,0.27811563,0.4135753
0.10703606,-0.14954428,-0.21357258,0.04308559,0.19849868,-0.19471712,0.41384506,0.59926224,0.49860635,-0.23338369,0.28341812,0.42851847
0.12598553,-0.12639977,-0.20660788,0.021798221,0.19849868,-0.17884323,0.4407437,0.5686019,0.47742027,-0.2090022,0.2463007,0.42851847
0.05018764,-0.2421223,-0.25536078,0.13887875,0.19849868,-0.2661496,0.4676424,0.54475504,0.4647086,-0.22932011,0.23039322,0.42851847
0.07861185,-0.29612616,-0.32500783,0.1601661,0.25396332,-0.32964516,0.4317775,0.5379416,0.44775975,-0.2780831,0.20388077,0.42851847
0.05018764,-0.27298164,-0.2832196,0.1601661,0.2169869,-0.2978974,0.40039572,0.54816175,0.41386196,-0.26995593,0.1773683,0.42851847
0.00281395,-0.28841132,-0.2623255,0.20274083,0.17076638,-0.2978974,0.37798017,0.53112817,0.38843867,-0.2537016,0.15615834,0.4061037
-0.035085,-0.27298164,-0.22053729,0.20274083,0.13378997,-0.2582127,0.33314905,0.5175014,0.35877812,-0.24557443,0.12964588,0.36874568
0.05018764,-0.33470032,-0.33893722,0.20274083,0.2447192,-0.36139292,0.37798017,0.510688,0.3291176,-0.23338369,0.10313345,0.3463309
0.059662376,-0.40413386,-0.40858424,0.25595927,0.30018383,-0.44076237,0.42281127,0.49706122,0.3121687,-0.23744728,0.08722597,0.31644452
0.021763425,-0.39641902,-0.37376073,0.26660293,0.26320744,-0.41695154,0.4272944,0.4834344,0.2909826,-0.31059176,0.06071352,0.29402974
0.021763425,-0.39641902,-0.37376073,0.25595927,0.26320744,-0.40901458,0.3690139,0.47321436,0.2782709,-0.35935473,0.03420107,0.26414335
-0.12035764,-0.4812822,-0.33893722,0.39432713,0.17076638,-0.44076237,0.23452057,0.44936746,0.2655593,-0.3634183,0.018293597,0.24172856
-0.14878184,-0.5198564,-0.36679605,0.44754556,0.17076638,-0.48044705,0.21210502,0.4255205,0.24437317,-0.42030847,0.0023861253,0.23425694
-0.09193342,-0.5044267,-0.38769013,0.4049708,0.2169869,-0.48044705,0.18520634,0.40167364,0.24013595,-0.4121813,-0.013521346,0.24920014
-0.14878184,-0.5198564,-0.35983133,0.4369019,0.17076638,-0.47251013,0.1672739,0.37782675,0.2528476,-0.39186338,-0.0400338,0.23425694
-0.16773131,-0.5044267,-0.3319725,0.44754556,0.13378997,-0.4486993,0.14934145,0.36079326,0.2655593,-0.3674819,-0.013521346,0.24920014
-0.23405448,-0.5121416,-0.29018432,0.4901203,0.07832534,-0.42488846,0.12692589,0.36419997,0.24861039,-0.34716398,0.023596086,0.22678536
-0.19615553,-0.46585256,-0.27625492,0.4369019,0.096813545,-0.40107766,0.21210502,0.39486024,0.28250813,-0.3268461,0.044806045,0.27908653
-0.21510501,-0.4118487,-0.21357258,0.4049708,0.041348927,-0.32964516,0.2390037,0.39826694,0.2782709,-0.298401,0.09252846,0.4359901
-0.1393071,-0.37327453,-0.23446669,0.3411087,0.087569445,-0.3217082,0.25693613,0.476621,0.36301535,-0.30246457,0.19327578,0.4135753
0.00281395,-0.29612616,-0.2692902,0.20274083,0.18925458,-0.30583432,0.2793517,0.5379416,0.4816575,-0.2577652,0.2463007,0.47334808
-0.05403447,-0.28069648,-0.22053729,0.2240282,0.124545865,-0.2661496,0.29728413,0.510688,0.40538752,-0.29027385,0.14025088,0.3911605
-0.025610263,-0.21126296,-0.17874907,0.1601661,0.10605765,-0.210591,0.3286659,0.5515684,0.4647086,-0.21712936,0.20388077,0.3836889
-0.395125,-0.45042285,-0.116066754,0.5433387,-0.115800835,-0.2978974,0.5124735,0.63332915,0.4180992,-0.15211205,-0.061243758,0.30897292
-0.24352922,-0.4195635,-0.1996432,0.4369019,0.013616616,-0.32964516,0.68731487,1.134114,0.95198894,0.44523454,0.16676334,0.21184216
0.8365908,0.20533817,-0.43644303,-0.60617906,0.69768023,-0.1391585,0.11795966,1.0523531,1.8672284,2.0097136,2.0597525,1.3998262
3.5368907,1.2777003,-1.4463247,-2.8732836,2.6759183,-0.16296934,-1.4421633,-0.12295801,2.7019608,4.273129,5.076869,3.6786633
5.9813733,1.8331684,-2.7417593,-4.618848,4.7373533,-0.61537516,-3.8092465,-2.592815,0.7358907,3.2491062,5.267759,4.5752554
4.285395,0.08961563,-3.0691004,-2.45818,4.1272426,-1.7027364,-5.118315,-5.3590546,-4.492839,-2.2692382,0.6015675,2.236645
2.0967307,-1.013606,-2.4562066,-0.4784549,2.6574302,-1.9170338,-3.8316622,-4.371112,-5.014017,-3.8459082,-1.7050157,0.27908653
0.9787119,-0.53528607,-1.1955955,-0.18043177,1.2708148,-0.95666367,-1.7739137,-1.6457524,-2.0691488,-1.6718918,-0.7558699,0.24920014
-0.016135523,-0.5121416,-0.45037246,0.36239606,0.2909397,-0.5201318,-0.65313566,-0.4091207,-0.8234062,-0.72507715,-0.4271156,0.084824994
-0.25300395,-0.6124344,-0.36679605,0.56462604,0.124545865,-0.5201318,-0.2631049,0.13935782,-0.21324658,-0.2537016,-0.19380601,-0.10196494
-0.47092292,-0.68186796,-0.2692902,0.734925,-0.051092114,-0.50425786,-0.038949274,0.2756258,-0.081892766,-0.15617563,-0.2680409,-0.24392529
-0.35722607,-0.53528607,-0.22053729,0.5752697,-0.023359798,-0.40107766,0.10899343,0.39826694,0.100307696,0.014494813,-0.18850352,-0.16173771
-0.34775135,-0.44270805,-0.13696085,0.50076395,-0.078824416,-0.30583432,0.1986557,0.46299422,0.20200098,0.13640228,-0.10896617,-0.087021746
-0.4235492,-0.42727837,-0.07427855,0.53269506,-0.15277724,-0.2582127,0.2076219,0.5038746,0.22318707,0.16484736,-0.077151224,-0.042192157
-0.45197344,-0.36555967,-0.004631531,0.5114077,-0.20824187,-0.19471712,0.22555435,0.57541525,0.36725253,0.30707273,0.108435936,0.0773534
-0.5656703,-0.3269855,0.1137684,0.5433387,-0.3469034,-0.099473804,0.30176726,0.612889,0.40962476,0.34364495,0.1879733,0.12965459
-0.5656703,-0.28841132,0.15555662,0.52205133,-0.37463576,-0.059789076,0.3241828,0.58904207,0.38420144,0.32332706,0.13494839,0.10723979
-0.49934712,-0.29612616,0.099838994,0.47947657,-0.30992702,-0.09153686,0.3286659,0.5345349,0.31640592,0.28675482,0.012991106,-0.06460695
-0.5372461,-0.35013,0.07894489,0.5433387,-0.30992702,-0.13122156,0.26590237,0.5072813,0.2528476,0.25830975,-0.029428815,-0.13932292
-0.5656703,-0.4118487,0.04412138,0.5965571,-0.30068293,-0.18678017,0.2031388,0.43914732,0.15539156,0.22986467,-0.16199109,-0.1990957
-0.44249868,-0.34241518,0.016262574,0.47947657,-0.21748598,-0.16296934,0.17175701,0.39826694,0.08335882,0.18922885,-0.17259604,-0.2364537
-0.6509429,-0.55071574,-0.011596234,0.7455687,-0.30992702,-0.2899604,0.041746747,0.29265928,-0.014097243,0.087639295,-0.18850352,-0.26634008
-0.7172661,-0.6972976,-0.09517266,0.8839365,-0.29143882,-0.40901458,-0.11964529,0.1700181,-0.11579052,-0.0017595151,-0.3157633,-0.45313
-0.6225187,-0.68186796,-0.15785497,0.82007444,-0.19899777,-0.44076237,-0.1555102,0.11551092,-0.22172102,-0.083031155,-0.35818323,-0.5129028
-0.5182966,-0.8130201,-0.35983133,0.8520055,-0.014115697,-0.62331206,-0.20482443,0.08485063,-0.33612594,-0.13992131,-0.4324181,-0.5876187
-0.4235492,-0.8515943,-0.45733714,0.83071816,0.096813545,-0.70268154,-0.25862178,-0.010536938,-0.433582,-0.22525652,-0.5384679,-0.6548631
-0.45197344,-0.80530536,-0.39465484,0.8094308,0.041348927,-0.63918597,-0.24068932,-0.1399915,-0.5649358,-0.3227825,-0.5331654,-0.527846
-0.44249868,-0.76673114,-0.37376073,0.77749974,0.032104824,-0.6074382,-0.25413868,-0.191092,-0.5861219,-0.3227825,-0.4271156,-0.52037436
-0.40459973,-0.6895828,-0.32500783,0.7029939,0.022860719,-0.5360057,-0.28103733,-0.20131208,-0.5479869,-0.2821467,-0.34227577,-0.33358443
-0.09193342,-0.40413386,-0.29018432,0.33046502,0.15227818,-0.36932987,-0.3303516,-0.23197238,-0.5268009,-0.22932011,-0.20441099,-0.124379724
0.00281395,-0.2652668,-0.2483961,0.18145347,0.17076638,-0.27408653,-0.36621648,-0.23197238,-0.49714032,-0.08709474,0.018293597,-0.07955015
0.06913711,-0.29612616,-0.3180431,0.17080978,0.2447192,-0.32964516,-0.4155307,-0.18427859,-0.433582,0.16078377,0.23039322,0.0773534
0.20178345,-0.2421223,-0.36679605,0.053729266,0.34640434,-0.33758208,-0.42001384,-0.1399915,-0.27680486,0.30300915,0.31523308,0.21184216
0.24915713,-0.18040362,-0.3459019,-0.020776512,0.35564843,-0.2820235,-0.3751827,-0.07526422,-0.18358605,0.38021722,0.357653,0.32391614
0.4102277,-0.03382175,-0.3319725,-0.20171914,0.42035717,-0.20265406,-0.35276714,-0.013943638,-0.06070666,0.46148884,0.37356046,0.28655812
0.08808658,-0.28069648,-0.3110784,0.14952241,0.25396332,-0.3217082,-0.31690225,0.09166403,0.05793549,0.5386969,0.30993056,0.14459778
-0.1866808,-0.5044267,-0.3180431,0.45818922,0.124545865,-0.44076237,-0.29448667,0.20067841,0.163866,0.60371417,0.27281314,0.010109027
-0.17720605,-0.45813772,-0.2832196,0.41561452,0.10605765,-0.3931407,-0.267588,0.23133868,0.36301535,0.5752691,0.21978824,-0.14679451
-0.20563027,-0.4812822,-0.2832196,0.44754556,0.087569445,-0.40107766,-0.24068932,0.26540568,0.48589474,0.54682404,0.1826708,-0.20656729
-0.1866808,-0.47356737,-0.29018432,0.42625818,0.10605765,-0.40107766,-0.22275686,0.2551856,0.55369025,0.518379,0.14555337,-0.26634008
-0.24352922,-0.5044267,-0.27625492,0.4901203,0.06908124,-0.41695154,-0.19137508,0.26199898,0.5452158,0.48587036,0.108435936,-0.40082884
-0.07298395,-0.38098934,-0.29018432,0.30917767,0.16152227,-0.36139292,-0.17344263,0.2790325,0.61724854,0.46555242,0.07662099,-0.44565842
-0.19615553,-0.4812822,-0.29018432,0.4369019,0.10605765,-0.40901458,-0.14654396,0.31991285,0.7401279,0.4736796,0.03420107,-0.37841403
-0.3098524,-0.6587235,-0.36679605,0.6391319,0.096813545,-0.5518796,-0.10619596,0.41189373,0.77826285,0.48180676,0.023596086,-0.46060163
-0.14878184,-0.4812822,-0.32500783,0.42625818,0.14303407,-0.43282542,-0.056881722,0.41530046,0.799449,0.4736796,0.044806045,-0.54278916
-0.3098524,-0.39641902,-0.12999617,0.45818922,-0.06033621,-0.2820235,-0.0120506,0.4561808,0.76131403,0.48587036,0.06071352,-0.490488
-0.30037764,-0.33470032,-0.08124325,0.4049708,-0.08806852,-0.210591,0.03726363,0.54134834,0.73165345,0.5102518,0.0713185,-0.46060163
-0.2814282,-0.2652668,-0.03249034,0.3411087,-0.115800835,-0.1550324,0.10899343,0.5651952,0.6977557,0.5793327,0.09252846,-0.41577202
-0.24352922,-0.18811846,0.016262574,0.26660293,-0.12504494,-0.08359992,-0.021016823,0.4800277,0.6680952,0.5996506,0.08722597,-0.37094244
-0.12983236,-0.041536577,0.05805078,0.09630401,-0.10655673,0.011643408,-0.17344263,0.42211387,0.63843465,0.57120556,0.13494839,-0.34105605
-0.23405448,-0.010677238,0.1625213,0.13887875,-0.21748598,0.083075896,-0.19137508,0.44596076,0.6045369,0.5590148,0.17206582,-0.31116965
-0.2624787,0.03561178,0.22520362,0.117591366,-0.2821947,0.14657146,-0.25413868,0.41189373,0.57911354,0.53463334,0.13494839,-0.31864128
-0.34775135,-0.06468108,0.19038011,0.23467189,-0.29143882,0.07513896,-0.28552046,0.39145356,0.5452158,0.5224425,0.11373842,-0.36347082
-0.49934712,-0.28069648,0.1137684,0.4688329,-0.31917113,-0.07566297,-0.2900036,0.37101334,0.51555526,0.4980611,0.07662099,-0.40082884
-0.50882185,-0.36555967,0.051086087,0.53269506,-0.2821947,-0.1550324,-0.27655423,0.34716645,0.48589474,0.46555242,0.050108537,-0.54278916
-0.48039764,-0.42727837,-0.039455038,0.56462604,-0.20824187,-0.24233879,-0.25862178,0.33353966,0.51555526,0.44117096,0.028898578,-0.62497675
-0.32880187,-0.3887042,-0.116066754,0.45818922,-0.078824416,-0.2661496,-0.24068932,0.30287936,0.5579275,0.4086623,-0.0029163659,-0.527846
-0.06350921,-0.31927067,-0.24143142,0.25595927,0.13378997,-0.2978974,-0.22723998,0.28584588,0.549453,0.38021722,-0.018823838,-0.62497675
-0.1108829,-0.39641902,-0.27625492,0.3411087,0.13378997,-0.36139292,-0.20482443,0.25859228,0.55369025,0.35177213,-0.05063878,-0.77440864
-0.3382766,-0.5121416,-0.21357258,0.5433387,-0.014115697,-0.38520375,-0.19585821,0.23815209,0.55369025,0.35989928,-0.07184874,-0.7594655
-0.46144816,-0.5661454,-0.17178439,0.6497755,-0.10655673,-0.38520375,-0.2989698,0.22452529,0.549453,0.38021722,-0.18320101,-0.77440864
-0.4235492,-0.48899707,-0.12999617,0.5752697,-0.12504494,-0.3217082,-0.3438009,0.24837218,0.5833508,0.37615362,-0.23092343,-0.8715395
-0.36670083,-0.3887042,-0.08124325,0.47947657,-0.12504494,-0.24233879,-0.3348347,0.30628607,0.5833508,0.36802647,-0.10896617,-0.84165305
-0.17720605,-0.19583328,-0.046419743,0.24531557,-0.051092114,-0.13122156,-0.3438009,0.30628607,0.549453,0.40459868,-0.018823838,-0.77440864
-0.06350921,-0.0029624044,0.04412138,0.032441907,-0.06033621,0.027517295,-0.3348347,0.28925258,0.52402973,0.44117096,0.03420107,-0.71463585
-0.23405448,0.058756284,0.23216833,0.08566032,-0.2729506,0.16244534,-0.3751827,0.28243917,0.48589474,0.43304378,0.05541103,-0.6548631
-0.10140816,0.15904915,0.21823893,-0.052707564,-0.19899777,0.20213005,-0.48277742,0.26540568,0.46047136,0.4289802,0.108435936,-0.62497675
