I,II,III,aVR,aVL,aVF,V1,V2,V3,V4,V5,V6
0.34365293,0.1695244,-0.38220885,-0.28535363,0.37519354,-0.12672278,0.62514293,0.712459,0.7305566,0.7461355,1.117185,0.7934721
0.47446865,-0.07604445,-0.8688593,-0.2620946,0.6626024,-0.70994586,0.6909672,0.6193532,0.6386732,0.6469429,0.98783326,0.6840675
0.08202147,-0.66268116,-0.90025604,0.2379749,0.41268164,-1.2231821,0.7003707,0.46639362,0.4966716,0.46659273,0.8153643,0.5149876
-0.10485816,-0.7991083,-0.74327207,0.41241774,0.2252411,-1.2231821,0.79440546,0.36663744,0.42984727,0.3493652,0.7291298,0.44536644
-0.1328901,-0.78546554,-0.68047845,0.42404723,0.18775299,-1.1765242,0.8508263,0.2668812,0.33796388,0.2321376,0.6256484,0.35585356
-0.21698594,-0.77182287,-0.53919286,0.47056535,0.075288646,-1.0598797,0.78500193,0.20037705,0.26278654,0.15999754,0.5911546,0.2762866
-0.25436184,-0.7991083,-0.49209768,0.50545394,0.037800536,-1.0365508,0.75679153,0.14717372,0.1876092,0.1058925,0.56528425,0.2365031
-0.067482226,-0.75818014,-0.77466893,0.37752917,0.2627292,-1.2231821,0.7097742,0.08066956,0.11243187,0.033752464,0.5394139,0.20666546
-0.123546116,-0.8536792,-0.77466893,0.44730628,0.2252411,-1.2931689,0.6627568,0.027466236,0.037254542,-0.03838758,0.49629667,0.17682782
-0.31042576,-1.0583199,-0.7118753,0.6450082,0.075288646,-1.4331423,0.6627568,-0.032387502,-0.029569754,-0.09249262,0.47042635,0.12709846
-0.20764196,-0.8946073,-0.68047845,0.50545394,0.13776885,-1.246511,0.7755985,-0.05233875,0.13749099,-0.065440096,0.47904977,0.10720668
-0.22632992,-0.8536792,-0.6019865,0.5170834,0.087784685,-1.1765242,0.8132124,0.02081582,0.21266833,-0.047405083,0.47042635,0.15693606
-0.10485816,-0.717252,-0.6490817,0.37752917,0.20024902,-1.1065375,0.79440546,0.10062081,0.17925619,-0.065440096,0.48767325,0.2365031
-0.21698594,-0.8946073,-0.66478,0.5170834,0.1252728,-1.246511,0.82261586,0.1405233,0.21266833,-0.011335064,0.47042635,0.25639483
-0.10485816,-0.90825003,-0.85316086,0.45893583,0.27522522,-1.4098135,0.7755985,0.13387288,0.17925619,0.0878575,0.5307905,0.36579946
0.044645537,-0.5535394,-0.6961769,0.21471584,0.31271335,-0.9898929,0.8790367,0.2269787,0.2961987,0.29526016,0.64289534,0.4652582
-0.2823938,-0.8809645,-0.53919286,0.551972,0.037800536,-1.1531954,0.97307146,0.32008454,0.371376,0.40347022,0.66876566,0.44536644
-0.11420214,-0.812751,-0.74327207,0.42404723,0.21274506,-1.2231821,0.8790367,0.2668812,0.32125783,0.33133018,0.7118829,0.4752041
-0.02076233,-0.6353957,-0.68047845,0.284493,0.2627292,-1.0365508,0.82261586,0.23362914,0.30455175,0.30427763,0.7377533,0.5050417
0.025957577,-0.5535394,-0.6961769,0.21471584,0.3002173,-0.9898929,0.75679153,0.20702745,0.26278654,0.2591901,0.7377533,0.5050417
0.10070942,-0.47168317,-0.7118753,0.14493872,0.35020146,-0.94323504,0.6627568,0.1405233,0.23772743,0.21410257,0.7377533,0.48514995
0.110053405,-0.4034696,-0.6490817,0.11005014,0.33770543,-0.8265905,0.75679153,0.20037705,0.20431527,0.18705006,0.7377533,0.4354206
0.27824506,-0.32161328,-0.85316086,-0.029504126,0.525146,-0.8965772,0.86022973,0.27353165,0.15419707,0.13294502,0.7377533,0.40558296
0.43709275,-0.25339973,-1.0258433,-0.15742888,0.7000905,-0.96656394,0.78500193,0.2136779,0.11243187,0.09687501,0.70325947,0.37574533
0.3529969,-0.29432786,-0.9316529,-0.087651744,0.61261827,-0.94323504,0.75679153,0.16712497,0.062313657,0.060804985,0.694636,0.32601595
-0.19829798,-1.0719625,-0.90025604,0.5868606,0.2252411,-1.5731161,0.7097742,0.113921635,0.0121954335,0.006699951,0.694636,0.3061242
-0.188954,-0.9901063,-0.8217641,0.5403425,0.20024902,-1.4564713,0.6721603,0.06736873,-0.0045106434,-0.0023175564,0.6515187,0.35585356
0.09136545,-0.5398967,-0.77466893,0.17982727,0.37519354,-1.0365508,0.62514293,0.027466236,0.062313657,0.033752464,0.6515187,0.35585356
0.09136545,-0.48532584,-0.72757363,0.15656824,0.35020146,-0.94323504,0.5781256,-0.012436257,0.13749099,0.078839995,0.64289534,0.35585356
0.15677331,-0.36254144,-0.68047845,0.051902536,0.3876896,-0.80326146,0.54991513,-0.05233875,0.12913795,0.033752464,0.60840154,0.35585356
0.2595571,-0.23975702,-0.7118753,-0.06439269,0.46266586,-0.70994586,0.52170473,-0.072289996,0.0957258,0.015717458,0.5911546,0.35585356
0.25021312,-0.2261143,-0.68047845,-0.052763168,0.43767378,-0.68661696,0.71917766,0.014165406,0.062313657,0.16901505,0.5566608,0.33596182
-0.10485816,-0.78546554,-0.72757363,0.40078825,0.21274506,-1.1998532,0.8038089,0.034116652,0.037254542,0.16901505,0.5394139,0.29617837
-0.123546116,-0.717252,-0.6333833,0.3891587,0.17525695,-1.0832086,0.71917766,0.014165406,-0.012863682,0.12392752,0.5135436,0.31607005
0.044645537,-0.6353957,-0.79036725,0.24960442,0.35020146,-1.1298665,0.6909672,0.027466236,0.020548465,0.1058925,0.49629667,0.2663407
0.09136545,-0.77182287,-1.0258433,0.27286348,0.46266586,-1.4098135,0.62514293,0.014165406,0.12078491,0.060804985,0.47042635,0.25639483
0.072677486,-0.67632383,-0.90025604,0.24960442,0.4001856,-1.2231821,0.587529,0.027466236,0.07901973,0.033752464,0.444556,0.25639483
-0.02076233,-0.75818014,-0.85316086,0.34264058,0.32520938,-1.2931689,0.5311082,0.0075149904,0.037254542,-0.0023175564,0.41868564,0.20666546
0.025957577,-0.6353957,-0.77466893,0.26123393,0.32520938,-1.1065375,0.52170473,-0.078940414,0.0121954335,-0.03838758,0.3928153,0.20666546
-0.17961001,-0.8673219,-0.6961769,0.48219487,0.16276091,-1.246511,0.52170473,-0.072289996,-0.046275828,-0.065440096,0.40143874,0.20666546
-0.17026603,-0.90825003,-0.74327207,0.4938244,0.18775299,-1.3164978,0.47468737,-0.012436257,-0.046275828,-0.101510115,0.43593255,0.20666546
0.13808535,-0.5671821,-0.8845577,0.15656824,0.43767378,-1.1298665,0.48409083,0.027466236,0.0038423953,-0.13758014,0.47042635,0.19671959
0.15677331,-0.5671821,-0.90025604,0.14493872,0.46266586,-1.1531954,0.46528387,0.07401915,0.070666686,-0.13758014,0.48767325,0.22655721
0.110053405,-0.48532584,-0.74327207,0.13330919,0.37519354,-0.96656394,0.5781256,0.113921635,0.11243187,0.006699951,0.60840154,0.29617837
0.08202147,-0.335256,-0.5234945,0.09842063,0.2627292,-0.68661696,0.65335333,0.093970396,0.1876092,0.2321376,0.7981174,0.36579946
0.18480524,-0.08968717,-0.41360566,-0.076022215,0.28772128,-0.38334095,0.5781256,0.08731997,0.24608046,0.32231265,0.8326112,0.41552883
0.42774874,0.38780782,-0.27232006,-0.4249079,0.3876896,0.12989536,0.54051167,0.08731997,0.3463169,0.28624263,0.8498581,0.5050417
0.62397236,0.7561611,-0.17812967,-0.70401645,0.47516188,0.52648705,0.47468737,0.054067895,0.43820032,0.32231265,0.89297533,0.6243923
0.6613483,0.9608018,-0.0054472582,-0.82031167,0.43767378,0.8064341,0.44647694,0.060718313,0.40478817,0.43052274,0.90159875,0.6243923
0.5118446,0.8516601,0.12013994,-0.6923869,0.28772128,0.8064341,0.3524422,0.04076707,0.33796388,0.35838267,0.8498581,0.58460873
0.27824506,0.41509324,0.010251137,-0.35513076,0.17525695,0.36318457,0.33363527,0.014165406,0.31290478,0.28624263,0.7808705,0.55477107
0.34365293,0.074025415,-0.47639927,-0.23883553,0.41268164,-0.29002523,0.22079356,-0.045688335,0.2544335,0.19606757,0.7377533,0.5348793
0.52118856,-0.23975702,-1.1514305,-0.21557648,0.8125549,-1.0598797,0.22079356,-0.045688335,0.20431527,0.078839995,0.6601422,0.49509585
0.110053405,-0.5398967,-0.8060657,0.16819777,0.4001856,-1.0365508,0.4182665,-0.12549333,0.08737277,-0.0744576,0.64289534,0.49509585
-0.20764196,-0.90825003,-0.6961769,0.5170834,0.13776885,-1.2931689,0.59693253,-0.12549333,-0.121453166,-0.2007027,0.5825311,0.37574533
-0.14223409,-0.8673219,-0.7589705,0.47056535,0.20024902,-1.2931689,0.51230127,-0.22524954,-0.11310013,-0.2277552,0.6256484,0.32601595
-0.039450288,-0.78546554,-0.85316086,0.36589965,0.31271335,-1.2931689,0.44647694,-0.17204623,-0.14651227,-0.30891275,0.56528425,0.22655721
-0.17026603,-0.7445374,-0.57058966,0.42404723,0.112776764,-1.0598797,0.6345464,-0.078940414,0.0957258,0.078839995,0.56528425,0.16688195
-0.70287293,-0.25339973,0.8893616,0.551972,-0.824426,0.43317133,1.4902625,0.67920697,1.0479721,0.5116803,0.5566608,-0.061873205
-0.2823938,0.8516601,1.454504,-0.19231746,-0.7619459,1.8095777,3.2957292,3.179763,3.6958847,2.7209692,1.6863327,0.40558296
4.426973,4.0713406,-2.7526674,-4.483611,4.049029,1.4129862,-0.6631329,1.5703627,2.8605812,5.3270283,5.9204464,4.503284
7.3329506,4.330552,-7.3366003,-6.4141116,7.822832,-1.7364185,-5.9008675,-3.4906034,-2.7276006,2.432409,5.9204464,6.591918
2.819808,-0.44439772,-5.248713,-1.5646012,3.9740522,-4.279271,-4.443329,-5.399273,-5.233512,-2.9239893,0.21172285,2.3450286
-0.36648965,-3.0092278,-2.8625562,1.5055927,0.9000271,-4.6991916,-2.8071249,-4.5280685,-4.5986814,-4.3487554,-2.0217507,-0.75808454
-0.5253373,-1.958739,-1.3712081,1.1683367,0.20024902,-2.6929045,-1.4342177,-2.2602768,-2.401832,-2.3919566,-0.917949,-0.5094376
-0.7495929,-1.194747,-0.11533607,0.9822644,-0.44954494,-1.1065375,0.107951894,-0.63092494,-0.6059293,-0.91308564,-0.090097874,-0.19116959
-0.5346813,-1.3311741,-0.6333833,0.91248727,-0.11215191,-1.5964448,0.42767,-0.25850162,-0.33863214,-0.6605955,0.14273524,-0.14144021
-0.5533693,-1.1538188,-0.39790726,0.8310806,-0.19962418,-1.2931689,0.7379846,0.0075149904,-0.096394055,-0.32694775,0.23759322,-0.10165671
-0.4225535,-1.0583199,-0.50779605,0.71478534,-0.074663796,-1.2698399,0.68156374,0.20037705,-0.08804102,-0.27284274,0.33245116,-0.032035574
-0.2730498,-0.94917816,-0.6333833,0.575231,0.075288646,-1.2698399,0.8508263,0.24027954,0.22937441,-0.34498277,0.28933388,0.017693805
-0.2356739,-0.77182287,-0.49209768,0.48219487,0.05029657,-1.0132217,1.0106853,0.20702745,0.3463169,-0.20972021,0.3583215,0.06742319
-0.17961001,-0.66268116,-0.46070087,0.40078825,0.06279261,-0.8965772,0.94486105,0.20702745,0.28784567,-0.14659765,0.3410746,0.10720668
-0.04879427,-0.4034696,-0.38220885,0.20308633,0.1252728,-0.61663014,0.92605406,0.1804258,0.28784567,-0.14659765,0.34969807,0.09726082
-0.20764196,-0.5671821,-0.30371684,0.37752917,-0.024679653,-0.70994586,0.88844013,0.1804258,0.23772743,-0.14659765,0.34969807,0.13704431
-0.41320953,-0.75818014,-0.17812967,0.5868606,-0.19962418,-0.7799326,0.82261586,0.3533366,0.24608046,-0.14659765,0.3410746,0.15693606
-0.21698594,-0.58082485,-0.30371684,0.3891587,-0.012183619,-0.73327476,0.92605406,0.4331416,0.20431527,-0.14659765,0.3583215,0.16688195
-0.17026603,-0.4989686,-0.28801847,0.31938156,0.00031242077,-0.6399591,1.0200888,0.41319036,0.19596224,-0.13758014,0.3410746,0.1469902
-0.15157805,-0.37618417,-0.16243127,0.26123393,-0.037175693,-0.42999876,0.9354575,0.4530928,0.20431527,-0.11052762,0.36694494,0.19671959
-0.10485816,-0.26704246,-0.14673287,0.17982727,-0.012183619,-0.3366831,0.86963326,0.4464424,0.1876092,-0.101510115,0.38419184,0.24644895
-0.10485816,-0.18518615,-0.03684406,0.14493872,-0.062167767,-0.17338063,0.79440546,0.46639362,0.30455175,-0.0744576,0.444556,0.32601595
-0.04879427,-0.08968717,-0.0054472582,0.063532054,-0.024679653,-0.08006494,0.72858113,0.37993827,0.371376,-0.05642259,0.5566608,0.57466286
0.24086913,0.11495355,-0.27232006,-0.19231746,0.2627292,-0.10339387,0.6721603,0.4929953,0.32125783,-0.029370073,0.5394139,0.61444634
0.6146284,0.6879475,-0.24092327,-0.6691278,0.50015396,0.4098424,0.56872207,0.68585736,0.43820032,0.11491001,0.7291298,0.7039593
0.62397236,0.8789455,-0.03684406,-0.762164,0.4251777,0.71311843,0.47468737,0.69250774,0.51337767,0.24115509,0.90159875,0.8233097
0.8669158,0.8380174,-0.49209768,-0.89008874,0.7625707,0.33985564,0.3806526,0.6991582,0.46325943,0.30427763,0.92746913,0.93271434
1.1659232,1.0153726,-0.79036725,-1.1575677,1.0999638,0.2698689,0.29602137,0.81886566,0.66373235,0.5567678,1.2292899,1.28082
1.1472353,1.1245143,-0.6333833,-1.1924564,1.0249876,0.4798292,0.2113901,0.9718253,0.8558522,0.80024046,1.4190058,1.4996294
1.4182109,1.5883666,-0.5548912,-1.5646012,1.162444,0.9464077,0.12675884,0.9252724,0.8558522,0.8723805,1.4362527,1.5891422
1.5396826,1.6702229,-0.66478,-1.6692668,1.2874043,0.9230788,0.051531058,0.9053211,0.9143234,0.8904155,1.4017588,1.5493587
1.4555867,1.4928677,-0.72757363,-1.5413421,1.2624122,0.71311843,0.070338,0.8853699,0.8558522,0.8363105,1.3241478,1.4300082
1.2873951,1.4246541,-0.5234945,-1.4017878,1.0624757,0.82976305,0.19258314,0.85876817,0.9310295,0.80024046,1.2810305,1.3802788
0.820196,0.8653028,-0.38220885,-0.8784592,0.7000905,0.43317133,0.40886307,0.838817,1.031266,0.7641704,1.1947961,1.1017944
0.3903728,0.3605224,-0.24092327,-0.39001936,0.35020146,0.12989536,0.52170473,0.6260036,0.87255824,0.6830129,1.0826912,0.74374276
0.20349321,0.1558817,-0.16243127,-0.19231746,0.20024902,-0.010078171,0.59693253,0.38658866,0.7472627,0.52069783,0.86710495,0.6243923
0.044645537,-0.035116304,-0.11533607,-0.0062450795,0.075288646,-0.10339387,0.68156374,0.1804258,0.6052611,0.30427763,0.694636,0.5348793
-0.011418347,-0.035116304,-0.021145662,0.017013967,0.00031242077,-0.033407092,0.6345464,0.06736873,0.5050246,0.12392752,0.6515187,0.44536644
0.09136545,0.1695244,0.041647945,-0.13416983,0.037800536,0.1765532,0.6157394,0.0008645753,0.42984727,0.078839995,0.5825311,0.35585356
-0.1328901,0.101310834,0.33991754,0.028643489,-0.22461626,0.33985564,0.5781256,-0.085590824,0.33796388,0.006699951,0.5307905,0.2762866
-0.2730498,-0.14425802,0.27712393,0.22634536,-0.28709647,0.08323752,0.56872207,-0.15209498,0.26278654,-0.047405083,0.47042635,0.2365031
-0.4318975,-0.47168317,0.18293355,0.47056535,-0.3620727,-0.2666963,0.59693253,-0.23855038,0.22937441,-0.12856264,0.43593255,0.17682782
-0.5066494,-0.29432786,0.51259995,0.43567678,-0.53701717,0.12989536,0.56872207,-0.29840413,0.23772743,-0.28186023,0.43593255,0.13704431
-0.17026603,0.08766812,0.38701272,0.063532054,-0.2621044,0.36318457,0.56872207,-0.27845287,0.20431527,-0.26382524,0.43593255,0.09726082
-0.14223409,-0.28068513,-0.08393927,0.20308633,-0.062167767,-0.29002523,0.54991513,-0.25850162,0.1876092,-0.20972021,0.43593255,0.04753143
-0.4786174,-0.64903843,0.057346348,0.575231,-0.3370806,-0.49998552,0.52170473,-0.23189996,0.19596224,-0.17365018,0.43593255,0.1469902
-0.7122169,-0.5671821,0.5439968,0.6915263,-0.6994657,-0.08006494,0.52170473,-0.21194872,0.23772743,-0.11052762,0.47042635,0.2663407
-0.674841,-0.4989686,0.57539356,0.6333787,-0.6744736,-0.010078171,0.5311082,-0.17869665,0.2961987,-0.065440096,0.47904977,0.25639483
-0.5253373,-0.28068513,0.5596951,0.44730628,-0.57450527,0.1765532,0.5028978,-0.11219248,0.3463169,-0.020352567,0.47904977,0.2663407
-0.33845767,-0.007830876,0.5596951,0.21471584,-0.44954494,0.38651347,0.5781256,-0.065639585,0.36302298,-0.0023175564,0.47904977,0.24644895
-0.2356739,0.1558817,0.57539356,0.075161576,-0.38706478,0.54981595,0.6721603,-0.032387502,0.371376,0.024734957,0.47904977,0.2762866
-0.123546116,0.2650234,0.51259995,-0.029504126,-0.28709647,0.6198027,0.59693253,0.0075149904,0.33796388,0.051787477,0.48767325,0.21661134
-0.20764196,0.1558817,0.5282984,0.063532054,-0.34957662,0.52648705,0.5593186,0.04741748,0.39643514,0.078839995,0.5307905,0.2663407
-0.3758336,0.19680984,0.85796475,0.14493872,-0.5870013,0.8064341,0.5311082,0.08066956,0.5384368,0.06982249,0.56528425,0.4254747
-0.40386558,-0.1306153,0.5282984,0.30775204,-0.47453701,0.2698689,0.46528387,0.060718313,0.48831853,0.024734957,0.56528425,0.34590772
-0.46927342,-0.36254144,0.37131435,0.44730628,-0.46204093,-0.033407092,0.54051167,0.014165406,0.4549064,-0.0023175564,0.56528425,0.3061242
-0.2730498,0.22409526,0.7166792,0.075161576,-0.47453701,0.71311843,0.62514293,-0.032387502,0.42149425,-0.029370073,0.56528425,0.2762866
-0.067482226,0.38780782,0.5596951,-0.13416983,-0.27460042,0.7364474,0.6157394,-0.072289996,0.2544335,-0.0744576,0.56528425,0.21661134
-0.030106308,0.29230884,0.37131435,-0.11091078,-0.17463212,0.5031581,0.6157394,-0.11884291,0.15419707,-0.101510115,0.5394139,0.1867737
-0.05813825,0.22409526,0.33991754,-0.06439269,-0.17463212,0.43317133,0.56872207,-0.14544456,0.14584403,-0.12856264,0.48767325,0.1469902
-0.07682621,0.08766812,0.23002873,0.0053844433,-0.14964002,0.24653997,0.56872207,-0.14544456,0.11243187,-0.17365018,0.45317945,0.16688195
-0.11420214,0.005811837,0.21433033,0.063532054,-0.16213608,0.15322427,0.5593186,-0.14544456,0.0957258,-0.2007027,0.4100622,0.15693606
-0.11420214,-0.10332987,0.07304473,0.12167966,-0.099655874,-0.05673601,0.51230127,-0.14544456,0.062313657,-0.2277552,0.3755684,0.15693606
-0.09551417,0.060382698,0.23002873,0.028643489,-0.14964002,0.22321105,0.52170473,-0.14544456,0.10407884,-0.27284274,0.33245116,0.15693606
-0.40386558,0.18316713,0.8893616,0.16819777,-0.6369855,0.82976305,0.52170473,-0.14544456,0.24608046,-0.27284274,0.30658078,0.10720668
-0.45992944,0.1558817,0.9521551,0.21471584,-0.68696964,0.82976305,0.52170473,-0.22524954,0.23772743,-0.2367727,0.28933388,0.057477307
-0.24501789,0.19680984,0.6538856,0.063532054,-0.43704885,0.6431316,0.52170473,-0.23855038,0.17925619,-0.2367727,0.25484014,0.0077479267
-0.4225535,-0.062401734,0.63818717,0.284493,-0.53701717,0.43317133,0.4934943,-0.18534707,0.14584403,-0.2367727,0.23759322,-0.0220897
-0.4879614,-0.15790072,0.63818717,0.36589965,-0.57450527,0.31652674,0.46528387,-0.17204623,0.0957258,-0.2367727,0.21172285,-0.091710836
-0.44124147,-0.08968717,0.63818717,0.30775204,-0.5495132,0.38651347,0.43707347,-0.13214374,0.037254542,-0.2367727,0.22896975,-0.07181908
-0.4879614,-0.14425802,0.63818717,0.3542701,-0.57450527,0.36318457,0.4182665,-0.11219248,0.08737277,-0.2367727,0.3410746,-0.04198145
-0.32911372,0.060382698,0.62248874,0.17982727,-0.47453701,0.5031581,0.37124917,-0.16539581,0.17090315,-0.2367727,0.33245116,-0.032035574
-0.20764196,0.19680984,0.57539356,0.04027301,-0.3745687,0.59647375,0.39945957,-0.2052983,0.12078491,-0.2367727,0.28933388,0.017693805
-0.1328901,0.23773797,0.49690148,-0.017874602,-0.28709647,0.5731449,0.43707347,-0.23189996,0.10407884,-0.2367727,0.27208698,-0.012143824
-0.0020743664,0.38780782,0.46550477,-0.1690584,-0.18712813,0.6664606,0.39945957,-0.27180246,0.062313657,-0.2367727,0.22034629,0.11715258
-0.030106308,0.30595154,0.40271112,-0.11091078,-0.18712813,0.54981595,0.37124917,-0.29175368,0.037254542,-0.21873769,0.22896975,0.22655721
-0.07682621,0.14223897,0.29282233,-0.017874602,-0.17463212,0.33985564,0.33363527,-0.30505452,0.0121954335,-0.19168517,0.26346356,0.16688195
-0.45058545,-0.18518615,0.5439968,0.3542701,-0.5120251,0.24653997,0.30542487,-0.3316562,-0.021216717,-0.16463266,0.26346356,0.15693606
-0.70287293,-0.38982686,0.74807596,0.61011964,-0.7619459,0.22321105,0.26781094,-0.34495702,-0.012863682,-0.14659765,0.26346356,0.11715258
-0.39452156,-0.02147359,0.63818717,0.24960442,-0.5245212,0.45650026,0.36184567,-0.3316562,-0.012863682,-0.11052762,0.26346356,0.10720668
-0.26370582,0.12859626,0.591092,0.09842063,-0.41205677,0.54981595,0.44647694,-0.29840413,-0.012863682,-0.101510115,0.26346356,0.06742319
-0.11420214,0.333237,0.5596951,-0.076022215,-0.2995925,0.6897895,0.39945957,-0.2851033,-0.012863682,-0.13758014,0.26346356,0.057477307
-0.188954,0.08766812,0.41840953,0.075161576,-0.2995925,0.38651347,0.3806526,-0.2518512,0.037254542,-0.2548077,0.25484014,0.04753143
-0.656153,-0.38982686,0.6538856,0.575231,-0.6994657,0.15322427,0.3524422,-0.22524954,0.07901973,-0.3720353,0.27208698,0.0077479267
-0.74024886,-0.18518615,1.0306472,0.5403425,-0.8994023,0.59647375,0.3242318,-0.2052983,0.12078491,-0.31793025,0.25484014,0.0077479267
-0.41320953,0.333237,1.0777423,0.11005014,-0.6994657,1.0863812,0.3806526,-0.16539581,0.17925619,-0.2007027,0.28933388,0.017693805
-0.2917378,0.7561611,1.3603135,-0.14579935,-0.7369538,1.6696042,0.54051167,-0.11884291,0.20431527,-0.11954513,0.4273091,0.17682782
-0.10485816,1.0972289,1.4388056,-0.40164885,-0.64948153,1.9962091,0.51230127,-0.045688335,0.32125783,0.033752464,0.43593255,0.2762866
-0.05813825,1.3427979,1.6585832,-0.5412031,-0.6994657,2.3694718,0.3900561,-0.05233875,0.35466993,0.13294502,0.43593255,0.3061242
-0.0020743664,1.4519395,1.6742816,-0.6226098,-0.6744736,2.4861164,0.3148283,0.060718313,0.46325943,0.29526016,0.5911546,0.35585356
0.34365293,1.7657219,1.454504,-0.95986587,-0.3620727,2.5794322,0.2113901,0.02081582,0.5050246,0.3854352,0.70325947,0.32601595
0.17546128,1.4928677,1.4231071,-0.738905,-0.44954494,2.322814,0.11735537,-0.25850162,0.32125783,0.20508507,0.5911546,0.2663407
0.3903728,1.2063706,0.7323775,-0.7505345,-0.037175693,1.5762886,0.03272411,-0.31835535,0.27949262,0.13294502,0.47904977,0.22655721
0.26890108,0.7561611,0.40271112,-0.49468505,0.012808458,0.9464077,-0.042503674,-0.31170496,0.12078491,-0.029370073,0.3755684,0.1867737
-0.22632992,0.19680984,0.591092,0.051902536,-0.38706478,0.59647375,0.051531058,-0.29840413,0.10407884,-0.11052762,0.30658078,0.12709846
-0.2356739,0.21045254,0.6538856,0.051902536,-0.42455286,0.6664606,0.26781094,-0.3383066,0.0038423953,-0.24579021,0.28933388,0.10720668
-0.61877716,0.005811837,1.0306472,0.37752917,-0.824426,0.75977623,0.44647694,-0.27845287,-0.029569754,-0.34498277,0.20309941,-0.0021979464
-0.63746506,0.074025415,1.1562344,0.36589965,-0.88690627,0.8997498,0.26781094,-0.35160744,-0.08804102,-0.45319283,0.22034629,-0.032035574
-0.57205725,-0.25339973,0.6695839,0.45893583,-0.6369855,0.2698689,0.23019704,-0.27180246,-0.22168961,-0.5072979,0.06512421,-0.18122372
-0.674841,0.11495355,1.2661232,0.37752917,-0.9493865,1.0163944,0.4182665,-0.21194872,0.26278654,-0.020352567,0.22896975,-0.17127784
-1.2074478,0.6060912,2.7260745,0.4938244,-1.8990854,2.5327744,2.1485054,1.4440048,1.7913923,0.755153,0.40143874,-0.42987064
0.4184048,2.1340752,1.768472,-1.1691973,-0.42455286,3.139326,2.618679,3.352674,3.9798882,3.6407547,2.6004183,1.1017944
6.2303615,5.299185,-4.369602,-6.1350036,5.8984423,1.2963415,-3.0986326,-0.21859913,1.0479721,4.59661,5.9635634,5.4083586
6.1836414,3.5392747,-6.300506,-5.3558254,6.6357083,-1.6431028,-6.051323,-4.8406377,-4.105852,0.024734957,3.2471771,4.7718225
0.810852,-0.97646356,-2.501493,-0.087651744,1.537325,-2.6929045,-3.7380686,-5.5256305,-5.0748043,-4.132335,-1.7544236,0.06742319
-0.7122169,-2.0133097,-1.1200337,1.2962615,-0.024679653,-2.5296018,-2.5156171,-3.9494822,-3.930438,-3.988055,-2.2114663,-1.2056489
-0.8617206,-0.8673219,0.44980633,0.91248727,-0.7619459,-0.40666986,-0.95464057,-1.7016419,-1.7168833,-1.8328712,-0.9955601,-0.71830106
-0.6281211,-0.048759017,0.983552,0.41241774,-0.81193006,0.6897895,0.3242318,-0.5178678,-0.5808702,-0.77782303,-0.43503582,-0.61884224
-0.57205725,0.019454554,0.983552,0.34264058,-0.77444184,0.7364474,0.59693253,-0.2518512,-0.36369124,-0.5433679,-0.21082616,-0.5392753
-0.95516044,-0.21247159,1.3603135,0.6798967,-1.1743151,0.82976305,0.71917766,-0.072289996,-0.07968798,-0.4351578,-0.14183858,-0.4895459
-0.674841,0.04673998,1.1719328,0.40078825,-0.92439437,0.8997498,0.6909672,0.113921635,-0.021216717,-0.3900703,-0.098721325,-0.400033
-0.60008913,0.29230884,1.3289168,0.2379749,-0.9368904,1.2263547,0.72858113,0.2136779,0.1625501,-0.28186023,-0.07285097,-0.42987064
-0.5814012,0.21045254,1.219028,0.26123393,-0.8744102,1.0630523,0.8038089,0.2203283,0.07901973,-0.29087773,-0.021110278,-0.4398165
-0.6468091,0.18316713,1.2975199,0.31938156,-0.9618824,1.1097101,0.8414228,0.17377539,0.037254542,-0.28186023,-0.003863379,-0.4398165
-0.61877716,0.1558817,1.219028,0.31938156,-0.8994023,1.0397234,0.75679153,0.15382414,-0.021216717,-0.2548077,-0.029733727,-0.4398165
-0.63746506,0.08766812,1.1876311,0.36589965,-0.8994023,0.9464077,0.72858113,0.12057205,-0.07968798,-0.2367727,-0.03835718,-0.4398165
-0.6468091,0.101310834,1.2033296,0.36589965,-0.91189826,0.96973664,0.65335333,0.08066956,-0.121453166,-0.2277552,-0.03835718,-0.42987064
-0.6468091,0.019454554,1.1248375,0.3891587,-0.88690627,0.85309196,0.62514293,0.16712497,-0.11310013,-0.2007027,-0.029733727,-0.36024952
-0.7869688,-0.18518615,1.1091392,0.56360155,-0.9743785,0.6664606,0.7097742,0.1804258,-0.0629819,-0.17365018,-0.055604078,-0.30057424
-0.3197697,0.4833068,1.0934408,-0.0062450795,-0.64948153,1.2263547,0.6909672,0.2668812,-0.021216717,-0.14659765,0.04787731,-0.23095308
-0.05813825,1.0426581,1.3132184,-0.41327834,-0.5620093,1.8562355,0.6345464,0.3466862,0.0038423953,-0.12856264,0.14273524,-0.17127784
-0.188954,0.9335164,1.3917104,-0.2737241,-0.68696964,1.8095777,0.606336,0.32008454,0.053960618,-0.101510115,0.14273524,-0.10165671
-0.09551417,0.8789455,1.1719328,-0.3202422,-0.53701717,1.6229463,0.54991513,0.25358036,0.070666686,-0.09249262,0.116864905,-0.05192733
-0.08617019,0.8925883,1.1719328,-0.3202422,-0.53701717,1.6229463,0.52170473,0.3134341,0.062313657,-0.029370073,0.20309941,0.027639681
0.016613597,0.71523297,0.7794728,-0.3202422,-0.2995925,1.1796969,0.47468737,0.5262474,0.2711396,-0.0023175564,0.36694494,0.31607005
0.28758904,0.94715905,0.6067904,-0.5877212,-0.062167767,1.2496836,0.4558804,0.5395482,0.3880821,0.051787477,0.41868564,0.45531234
0.2595571,1.3018696,1.0463456,-0.71564597,-0.24960834,1.8795644,0.36184567,0.70580864,0.3463169,0.3854352,0.57390773,0.5050417
0.5865965,1.4110113,0.63818717,-0.95986587,0.13776885,1.6696042,0.060934532,0.81221527,0.39643514,0.5297153,0.6773891,0.72385097
1.1659232,1.9840053,0.32421914,-1.5646012,0.6501064,1.9262223,-0.11773146,0.712459,0.41314122,0.5026628,0.86710495,0.98244375
1.2032993,2.1750033,0.48120314,-1.6808963,0.61261827,2.2061694,-0.1365384,0.7457111,0.39643514,0.6379254,1.0309505,1.131632
1.2873951,2.3114305,0.49690148,-1.785562,0.6626024,2.346143,-0.23057315,0.81221527,0.52173066,0.6559604,0.93609256,1.1614696
1.1192033,2.147718,0.591092,-1.6111193,0.51264995,2.2761562,-0.1741523,0.8255161,0.6136141,0.77318794,0.8757284,1.121686
0.77347606,1.6975085,0.63818717,-1.2157154,0.2627292,1.9262223,0.03272411,0.7856136,0.5551428,0.84532803,0.7636236,0.7337969
0.5398765,1.4792249,0.7794728,-0.9714954,0.05029657,1.8329067,0.2113901,0.7457111,0.52173066,0.7010479,0.5825311,0.38569123
0.306277,1.2609415,0.9364568,-0.72727543,-0.17463212,1.7629199,0.44647694,0.64595485,0.47161248,0.6198904,0.43593255,0.33596182
0.23152515,1.1245143,0.8893616,-0.6226098,-0.19962418,1.6229463,0.54051167,0.41984072,0.42984727,0.5297153,0.36694494,0.2365031
-0.25436184,0.5515204,1.0620439,-0.076022215,-0.5994974,1.2496836,0.51230127,0.20702745,0.371376,0.20508507,0.29795736,-0.091710836
-0.61877716,0.29230884,1.376012,0.26123393,-0.9618824,1.2730125,0.5028978,0.13387288,0.23772743,-0.047405083,0.20309941,-0.39008713
-0.45992944,0.428736,1.2661232,0.09842063,-0.81193006,1.2963415,0.47468737,0.060718313,0.10407884,-0.05642259,0.10824147,-0.38014126
-0.39452156,0.3605224,1.0777423,0.086791106,-0.6994657,1.1097101,0.47468737,-0.019086672,0.020548465,-0.05642259,-0.003863379,-0.400033
-0.3758336,0.3605224,1.0463456,0.086791106,-0.6744736,1.0863812,0.51230127,-0.09889166,-0.021216717,-0.065440096,-0.07285097,-0.46965414
-0.41320953,0.2650234,0.9992504,0.14493872,-0.68696964,0.96973664,0.5593186,-0.11884291,-0.0629819,-0.047405083,-0.10734478,-0.4895459
-0.32911372,0.44237867,1.0620439,0.017013967,-0.6369855,1.1563679,0.52170473,-0.10554208,-0.121453166,-0.065440096,-0.13321511,-0.4895459
-0.17026603,0.619734,0.9992504,-0.15742888,-0.5245212,1.2730125,0.52170473,-0.1986479,-0.15486531,-0.17365018,-0.15908548,-0.4895459
-0.2730498,0.5105922,1.0463456,-0.052763168,-0.61199343,1.2263547,0.52170473,-0.21859913,-0.22168961,-0.21873769,-0.20220272,-0.4895459
-0.2356739,0.5378777,1.0149487,-0.087651744,-0.5620093,1.2263547,0.52170473,-0.18534707,-0.313573,-0.18266769,-0.20220272,-0.4895459
-0.2823938,0.428736,0.9521551,-0.0062450795,-0.57450527,1.0630523,0.52170473,-0.17204623,-0.2885139,-0.2007027,-0.16770892,-0.4796
-0.5533693,0.49694955,1.4859008,0.13330919,-0.9618824,1.5296305,0.52170473,-0.15209498,-0.23839568,-0.18266769,-0.14183858,-0.42987064
-0.7869688,0.23773797,1.5957896,0.3891587,-1.1743151,1.3896573,0.52170473,-0.14544456,-0.21333657,-0.2007027,-0.12459167,-0.4796
-0.7122169,0.14223897,1.376012,0.37752917,-1.0243627,1.1330391,0.52170473,-0.09889166,-0.16321835,-0.18266769,-0.098721325,-0.54922116
-0.17961001,0.8516601,1.2818216,-0.25046507,-0.6369855,1.6929331,0.5311082,-0.05233875,-0.13815923,-0.11052762,-0.08147442,-0.5392753
-0.039450288,0.9062309,1.1091392,-0.3667603,-0.47453701,1.5996174,0.4934943,-0.0057858406,-0.096394055,-0.047405083,-0.11596822,-0.52932936
-0.10485816,0.74251837,1.0306472,-0.25046507,-0.487033,1.4129862,0.587529,0.0075149904,-0.096394055,0.015717458,-0.15908548,-0.4895459
-0.123546116,0.70159024,1.0149487,-0.21557648,-0.4995291,1.3429993,0.6627568,-0.019086672,-0.08804102,-0.0023175564,-0.20220272,-0.4895459
-0.16092205,0.57880586,0.9364568,-0.15742888,-0.47453701,1.1796969,0.5781256,-0.032387502,-0.054628868,-0.083475105,-0.22807306,-0.51938355
-0.2917378,0.45602137,1.0149487,-0.017874602,-0.5994974,1.1330391,0.54991513,-0.05233875,-0.046275828,-0.13758014,-0.27981377,-0.5392753
-0.61877716,0.30595154,1.3917104,0.24960442,-0.9743785,1.2963415,0.48409083,-0.072289996,-0.08804102,-0.20972021,-0.2884372,-0.5691129
-0.7495929,0.11495355,1.376012,0.41241774,-1.0493547,1.1097101,0.43707347,-0.078940414,-0.22168961,-0.28186023,-0.2539434,-0.59895056
-0.6094332,0.11495355,1.140536,0.3310111,-0.8619141,0.9230788,0.42767,-0.12549333,-0.3553382,-0.30891275,-0.2539434,-0.58900464
-0.25436184,0.49694955,0.9992504,-0.052763168,-0.5620093,1.1563679,0.42767,-0.1986479,-0.38875034,-0.28186023,-0.2539434,-0.58900464
-0.188954,0.46966413,0.8736632,-0.087651744,-0.47453701,1.0397234,0.47468737,-0.21194872,-0.38875034,-0.28186023,-0.2539434,-0.57905877
-0.25436184,0.37416512,0.8736632,0.0053844433,-0.5245212,0.96973664,0.47468737,-0.21194872,-0.38875034,-0.26382524,-0.24531996,-0.54922116
-0.2823938,0.3468797,0.8893616,0.028643489,-0.5495132,0.9464077,0.47468737,-0.21194872,-0.38875034,-0.2277552,-0.2884372,-0.52932936
-0.32911372,0.2650234,0.85796475,0.086791106,-0.5620093,0.85309196,0.47468737,-0.21194872,-0.38875034,-0.2367727,-0.2884372,-0.54922116
-0.39452156,0.21045254,0.90505993,0.15656824,-0.6244894,0.85309196,0.47468737,-0.21859913,-0.36369124,-0.26382524,-0.31430757,-0.6785176
-0.3197697,0.23773797,0.8108696,0.09842063,-0.53701717,0.78310525,0.47468737,-0.23855038,-0.34698516,-0.29087773,-0.34880134,-0.7083552
-0.10485816,0.4833068,0.74807596,-0.14579935,-0.3745687,0.96973664,0.42767,-0.24520078,-0.32192606,-0.32694775,-0.34880134,-0.6785176
-0.4879614,0.2786661,1.140536,0.19145681,-0.78693795,1.0630523,0.42767,-0.24520078,-0.29686692,-0.30891275,-0.48677653,-0.6884634
-0.60008913,0.1558817,1.1876311,0.30775204,-0.8744102,1.0163944,0.42767,-0.24520078,-0.2634548,-0.28186023,-0.52127033,-0.6884634
-0.17961001,0.6470194,1.0620439,-0.1690584,-0.5495132,1.3429993,0.42767,-0.24520078,-0.2634548,-0.2548077,-0.50402343,-0.6884634
-0.33845767,0.44237867,1.0777423,0.028643489,-0.6619776,1.1796969,0.42767,-0.23189996,-0.32192606,-0.2367727,-0.48677653,-0.7083552
-0.3478017,0.30595154,0.9364568,0.086791106,-0.61199343,0.9464077,0.44647694,-0.1986479,-0.30521998,-0.20972021,-0.46090618,-0.77797633
-0.30108178,0.41509324,0.96785355,0.0053844433,-0.5870013,1.0630523,0.48409083,-0.17869665,-0.30521998,-0.18266769,-0.47815308,-0.74813867
-0.3851776,0.08766812,0.7637744,0.20308633,-0.5620093,0.6431316,0.46528387,-0.1587454,-0.2885139,-0.29087773,-0.41778892,-0.71830106
-0.2356739,0.37416512,0.8108696,-0.017874602,-0.47453701,0.9230788,0.48409083,-0.11884291,-0.25510177,-0.29989526,-0.3746717,-0.6785176
-0.49730536,0.4833068,1.3917104,0.09842063,-0.88690627,1.436315,0.46528387,-0.11219248,-0.27180785,-0.18266769,-0.322931,-0.64867985
-0.2823938,0.8243747,1.4231071,-0.18068793,-0.7619459,1.7629199,0.4182665,-0.058989167,-0.21333657,-0.083475105,-0.27981377,-0.6088964
0.044645537,1.2745843,1.4074087,-0.5760917,-0.53701717,2.1361825,0.33363527,-0.025737086,-0.096394055,0.051787477,-0.22807306,-0.41992474
0.19414923,1.4110113,1.2975199,-0.71564597,-0.38706478,2.1595116,0.28661788,0.034116652,-0.03792279,0.19606757,-0.19357926,-0.4796
0.25021312,1.6565802,1.5015992,-0.86682975,-0.43704885,2.5327744,0.19258314,0.014165406,0.028901502,0.30427763,-0.16770892,-0.559167
-0.0020743664,1.4246541,1.6428847,-0.6109803,-0.6619776,2.4394586,-0.09892451,-0.21859913,-0.012863682,0.21410257,-0.13321511,-0.51938355
0.34365293,1.5337958,1.1876311,-0.8784592,-0.24960834,2.2061694,-0.12713493,-0.27845287,-0.054628868,0.16901505,-0.12459167,-0.59895056
0.29693303,1.3018696,0.9992504,-0.738905,-0.19962418,1.8562355,-0.089521036,-0.29175368,-0.121453166,0.078839995,-0.20220272,-0.559167
-0.22632992,0.29230884,0.7323775,0.017013967,-0.44954494,0.78310525,0.03272411,-0.26515204,-0.22168961,-0.21873769,-0.40054205,-0.61884224
-0.32911372,0.101310834,0.6695839,0.15656824,-0.487033,0.5731449,0.20198661,-0.29840413,-0.36369124,-0.29989526,-0.43503582,-0.61884224
-0.17961001,0.074025415,0.38701272,0.075161576,-0.27460042,0.36318457,0.30542487,-0.26515204,-0.48063377,-0.3720353,-0.52127033,-0.7083552
-0.25436184,0.060382698,0.49690148,0.12167966,-0.3745687,0.43317133,0.28661788,-0.27180246,-0.47228074,-0.27284274,-0.50402343,-0.90727264
-0.6468091,-0.19882888,0.85796475,0.48219487,-0.7619459,0.45650026,0.25840747,-0.17204623,-0.71451885,-0.3900703,-0.74548006,-1.1161361
-0.74024886,-0.29432786,0.90505993,0.5868606,-0.84941816,0.4098424,0.40886307,-0.078940414,-0.37204427,-0.2548077,-0.71098626,-0.966948
-0.89909655,-0.1306153,1.3603135,0.61011964,-1.149323,0.8997498,1.3209999,0.69250774,0.7305566,0.34034768,-0.67649245,-1.2454324
-0.25436184,0.81073195,1.3603135,-0.19231746,-0.72445774,1.6929331,3.1264665,3.3992271,3.4202347,2.8652494,0.6860125,-0.83765155
4.1373096,4.6034064,-1.6537794,-4.541759,3.4242265,2.7194057,-0.3152044,2.3484612,3.1445842,6.030394,5.739354,4.2546372
5.59497,4.5488353,-4.1498246,-5.413973,5.3861046,0.8064341,-4.875889,-2.918668,-2.3600671,2.558654,5.0839715,6.213975
1.1565793,0.333237,-1.5595889,-0.8552002,1.3873726,-0.8732483,-3.5970163,-5.4125733,-5.099863,-2.9600594,-1.0817945,1.5791963
-1.0859761,-1.3584596,0.26142555,1.2613729,-0.824426,-0.96656394,-2.214706,-4.461564,-4.5151505,-3.9610026,-2.840978,-1.364783
-1.123352,-1.0583199,0.68528235,1.1450777,-1.0243627,-0.38334095,-1.199131,-2.4132364,-2.8946614,-2.671499,-2.142479,-1.7128886
-1.0579443,-0.51261127,1.2033296,0.8775987,-1.1868111,0.45650026,-0.070714094,-0.936844,-1.2324071,-1.1114707,-1.3577449,-1.3349453
-0.89909655,-0.5398967,0.8893616,0.7845625,-0.9493865,0.19988212,0.3148283,-0.3316562,-0.8147552,-0.723718,-0.97831315,-1.0862985
-0.6468091,-0.10332987,0.983552,0.44730628,-0.824426,0.6431316,0.7003707,-0.072289996,-0.45557466,-0.6155079,-0.94381934,-1.0564609
-0.6468091,-0.23975702,0.8108696,0.50545394,-0.74944985,0.38651347,0.72858113,0.034116652,-0.33027908,-0.48926285,-0.8489614,-1.0166773
-1.0205684,-0.812751,0.79517114,0.9822644,-0.9993705,-0.10339387,0.78500193,-0.045688335,-0.2885139,-0.47122785,-0.8920787,-1.0564609
-0.84303266,-0.60811025,0.7166792,0.7845625,-0.84941816,0.013250755,0.71917766,-0.09224124,-0.24674872,-0.4081053,-0.81446767,-1.0166773
-0.82434475,-0.67632383,0.6067904,0.79619205,-0.78693795,-0.12672278,0.7097742,-0.019086672,-0.24674872,-0.4081053,-0.8230911,-1.0564609
-0.74024886,-0.5398967,0.62248874,0.6915263,-0.74944985,0.013250755,0.7097742,0.0075149904,-0.15486531,-0.34498277,-0.8058442,-1.0067315
-0.61877716,-0.5535394,0.40271112,0.62174916,-0.57450527,-0.17338063,0.6721603,0.06736873,-0.2634548,-0.33596525,-0.81446767,-0.95700204
-0.674841,-0.4034696,0.6695839,0.5868606,-0.7119617,0.15322427,0.65335333,0.093970396,-0.43886858,-0.29087773,-0.81446767,-0.91721857
-0.40386558,0.005811837,0.6695839,0.24960442,-0.53701717,0.5031581,0.6157394,0.1870762,-0.40545642,-0.28186023,-0.8058442,-0.86748916
-0.7122169,-0.4171123,0.7323775,0.61011964,-0.7619459,0.19988212,0.587529,0.2668812,-0.36369124,-0.28186023,-0.81446767,-0.83765155
-0.9738484,-0.48532584,1.0777423,0.8194511,-1.0743468,0.38651347,0.5593186,0.24692996,-0.3553382,-0.28186023,-0.8058442,-0.7680304
-0.63746506,-0.36254144,0.6538856,0.5403425,-0.6744736,0.1765532,0.48409083,0.2602308,-0.2885139,-0.27284274,-0.76272696,-0.83765155
-0.6281211,-0.26704246,0.7637744,0.50545394,-0.72445774,0.33985564,0.4182665,0.24692996,-0.33863214,-0.19168517,-0.68511593,-0.8177598
-0.59074515,-0.07604445,0.90505993,0.40078825,-0.74944985,0.59647375,0.3242318,0.2602308,-0.47228074,-0.101510115,-0.64199865,-0.559167
-0.20764196,0.101310834,0.48120314,0.086791106,-0.3370806,0.45650026,0.2772144,0.24692996,-0.4472216,-0.011335064,-0.56438756,-0.38014126
0.20349321,0.71523297,0.49690148,-0.4365374,-0.062167767,0.96973664,0.18317966,0.27353165,-0.40545642,0.078839995,-0.4091655,-0.14144021
0.3529969,0.94715905,0.49690148,-0.6342393,0.037800536,1.1796969,0.107951894,0.33338538,-0.38875034,0.16901505,-0.22807306,0.13704431
0.57725245,0.9062309,0.088743135,-0.7505345,0.35020146,0.82976305,-0.061310623,0.3998895,-0.33863214,0.2321376,-0.13321511,0.2762866
0.73610014,0.9608018,-0.13103448,-0.86682975,0.5501381,0.7364474,-0.3434148,0.51959693,-0.33863214,0.3493652,0.02200697,0.40558296
1.2313311,1.5883666,-0.24092327,-1.4366763,0.92501926,1.1796969,-0.3058009,0.5395482,-0.2885139,0.5657853,0.29795736,0.7039593
1.4182109,1.6838657,-0.44500247,-1.5994897,1.1249558,1.1097101,-0.5408877,0.5728003,-0.2634548,0.5477503,0.3583215,0.8730391
1.3154271,1.6292948,-0.33511367,-1.5064535,0.9999954,1.1563679,-0.6725363,0.59940195,-0.11310013,0.6739954,0.28933388,0.7636345
1.334115,1.7657219,-0.20952646,-1.5878601,0.9750034,1.3429993,-0.32460785,0.65925574,0.21266833,0.9535381,0.24621665,0.72385097
0.7641321,1.1654425,0.057346348,-0.9714954,0.48765787,1.0397234,-0.1741523,0.68585736,0.31290478,0.8723805,0.20309941,0.63433814
0.5118446,1.0426581,0.33991754,-0.762164,0.20024902,1.1330391,0.0045136907,0.5861012,0.42984727,0.77318794,0.12548836,0.32601595
0.05398952,0.524235,0.49690148,-0.2620946,-0.16213608,0.8064341,0.19258314,0.5262474,0.47161248,0.6920304,-0.090097874,-0.091710836
-0.11420214,0.45602137,0.7009808,-0.1225403,-0.3620727,0.8997498,0.3242318,0.41319036,0.32125783,0.5026628,-0.2884372,-0.33041185
-0.11420214,0.41509324,0.6695839,-0.11091078,-0.34957662,0.85309196,0.4934943,0.2668812,0.24608046,0.28624263,-0.4264124,-0.57905877
-0.40386558,-0.1306153,0.5282984,0.30775204,-0.487033,0.2931978,0.52170473,0.20702745,0.14584403,0.25017262,-0.5816345,-0.83765155
-0.6094332,-0.3488987,0.62248874,0.528713,-0.64948153,0.1765532,0.5311082,0.1870762,0.037254542,0.2682076,-0.67649245,-0.83765155
-0.7122169,-0.21247159,0.9521551,0.528713,-0.84941816,0.52648705,0.4934943,0.15382414,-0.10474709,0.25017262,-0.7023628,-0.8475974
-0.4225535,-0.007830876,0.7166792,0.26123393,-0.57450527,0.52648705,0.6157394,0.12722246,-0.021216717,0.2772251,-0.71098626,-0.88738096
-0.4318975,-0.5944676,0.057346348,0.5170834,-0.31208855,-0.47665665,0.8038089,0.093970396,0.13749099,0.11491001,-0.8058442,-0.88738096
-0.44124147,-0.44439772,0.23002873,0.45893583,-0.3745687,-0.22003846,0.7473881,0.06736873,0.0121954335,0.11491001,-0.8662083,-0.86748916
-0.7309049,-0.430755,0.7323775,0.6333787,-0.77444184,0.15322427,0.6721603,0.034116652,-0.046275828,0.033752464,-0.8317145,-0.83765155
-0.84303266,-0.62175304,0.7009808,0.7845625,-0.8369221,-0.010078171,0.7003707,0.0075149904,-0.121453166,-0.020352567,-0.81446767,-0.82770574
-0.94581646,-0.75818014,0.7323775,0.91248727,-0.92439437,-0.10339387,0.75679153,-0.03903792,-0.25510177,0.11491001,-0.7885973,-0.7879222
-0.79631275,-0.5398967,0.7166792,0.72641486,-0.81193006,0.059908595,0.606336,-0.13879415,-0.121453166,-0.03838758,-0.76272696,-0.77797633
-0.20764196,0.31959426,0.7166792,-0.0062450795,-0.42455286,0.8064341,0.54051167,-0.10554208,-0.029569754,-0.083475105,-0.74548006,-0.74813867
-0.63746506,-0.29432786,0.7323775,0.5170834,-0.7119617,0.2931978,0.5781256,-0.0057858406,-0.07133494,0.015717458,-0.69373935,-0.71830106
-0.74024886,-0.58082485,0.57539356,0.70315576,-0.72445774,-0.05673601,0.5593186,0.04741748,-0.046275828,0.09687501,-0.6506221,-0.69840926
-0.4318975,-0.18518615,0.49690148,0.34264058,-0.487033,0.19988212,0.606336,0.12722246,-0.07968798,0.18705006,-0.6247518,-0.6586258
-0.33845767,-0.28068513,0.24572714,0.3310111,-0.32458454,-0.05673601,0.6157394,0.16712497,-0.11310013,0.29526016,-0.57301104,-0.638734
-0.46927342,-0.2261143,0.5282984,0.3891587,-0.5245212,0.19988212,0.606336,0.1405233,-0.13815923,0.34034768,-0.56438756,-0.6088964
-0.665497,-0.38982686,0.6695839,0.5868606,-0.7119617,0.15322427,0.5781256,0.10062081,-0.17157139,0.2591901,-0.59888136,-0.58900464
-0.36648965,-0.28068513,0.29282233,0.34264058,-0.3620727,-0.033407092,0.5311082,0.07401915,-0.19663051,0.20508507,-0.590258,-0.58900464
-0.32911372,-0.10332987,0.43410796,0.24960442,-0.38706478,0.22321105,0.5028978,0.027466236,-0.23004264,0.15098004,-0.6161283,-0.58900464
-0.61877716,-0.5398967,0.41840953,0.62174916,-0.57450527,-0.1500517,0.47468737,-0.012436257,-0.25510177,0.0878575,-0.64199865,-0.58900464
-0.59074515,-0.5671821,0.33991754,0.59849006,-0.5245212,-0.22003846,0.42767,0.060718313,-0.2634548,0.051787477,-0.64199865,-0.58900464
-0.5253373,-0.45804042,0.37131435,0.5170834,-0.4995291,-0.12672278,0.4558804,0.093970396,-0.2634548,0.024734957,-0.667869,-0.64867985
-0.5627132,-0.60811025,0.24572714,0.59849006,-0.47453701,-0.31335416,0.4934943,0.04076707,-0.2634548,-0.0023175564,-0.71098626,-0.7083552
-0.665497,-0.51261127,0.5282984,0.62174916,-0.64948153,-0.033407092,0.47468737,0.02081582,-0.2634548,-0.029370073,-0.72823316,-0.7680304
-0.60008913,-0.48532584,0.44980633,0.5868606,-0.5870013,-0.08006494,0.47468737,-0.012436257,-0.24674872,-0.05642259,-0.72823316,-0.7879222
-0.39452156,-0.4171123,0.16723514,0.42404723,-0.32458454,-0.22003846,0.47468737,-0.045688335,-0.18827747,-0.047405083,-0.72823316,-0.7879222
-0.45992944,-0.37618417,0.35561594,0.44730628,-0.43704885,-0.05673601,0.46528387,-0.025737086,-0.15486531,0.006699951,-0.72823316,-0.7879222
-0.46927342,-0.4171123,0.30852073,0.45893583,-0.43704885,-0.12672278,0.48409083,-0.0057858406,-0.10474709,0.06982249,-0.72823316,-0.7879222
-0.3758336,-0.3488987,0.23002873,0.3891587,-0.34957662,-0.12672278,0.51230127,-0.012436257,-0.054628868,0.06982249,-0.72823316,-0.7879222
-0.30108178,-0.23975702,0.23002873,0.284493,-0.28709647,-0.05673601,0.52170473,0.02081582,-0.012863682,0.09687501,-0.68511593,-0.71830106
-0.19829798,-0.17154343,0.15153675,0.19145681,-0.18712813,-0.033407092,0.54991513,0.02081582,-0.0629819,0.051787477,-0.6161283,-0.638734
-0.17026603,-0.062401734,0.21433033,0.12167966,-0.18712813,0.10656645,0.5781256,0.034116652,-0.012863682,0.15098004,-0.55576414,-0.559167
-0.36648965,0.04673998,0.6695839,0.20308633,-0.5120251,0.52648705,0.5311082,0.1804258,0.10407884,0.2772251,-0.51264685,-0.4796
-0.3478017,0.2786661,0.90505993,0.09842063,-0.5994974,0.8997498,0.42767,0.1870762,0.17925619,0.3764177,-0.3574248,-0.4099789
-0.1328901,0.4833068,0.7637744,-0.1225403,-0.39956078,0.96973664,0.30542487,0.1405233,0.2711396,0.5748028,-0.2884372,-0.38014126
0.12874137,0.81073195,0.7323775,-0.4249079,-0.21212022,1.2263547,0.24900399,0.12722246,0.26278654,0.5657853,-0.3056841,-0.34035772
0.21283719,0.8789455,0.6538856,-0.5179441,-0.12464795,1.2263547,0.23019704,0.07401915,0.17090315,0.66497785,-0.2884372,-0.30057424
-0.08617019,0.2786661,0.46550477,-0.06439269,-0.24960834,0.5731449,0.24900399,0.07401915,0.14584403,0.6920304,-0.31430757,-0.28068247
0.110053405,0.2650234,0.12013994,-0.18068793,0.025304496,0.31652674,0.23019704,0.0075149904,0.070666686,0.5477503,-0.2539434,-0.21106134
0.016613597,0.019454554,-0.0054472582,-0.029504126,0.012808458,0.013250755,0.24900399,0.04076707,0.020548465,0.36740017,-0.40054205,-0.4099789
-0.22632992,-0.335256,-0.0054472582,0.284493,-0.14964002,-0.2666963,0.30542487,-0.0057858406,0.0121954335,0.2321376,-0.50402343,-0.4895459
-0.5066494,-0.812751,-0.08393927,0.6566377,-0.2995925,-0.75660366,0.40886307,0.014165406,-0.08804102,0.17803256,-0.68511593,-0.6586258
-0.54402524,-0.93553543,-0.16243127,0.73804444,-0.2995925,-0.9199061,0.37124917,-0.032387502,-0.021216717,0.2682076,-0.667869,-0.6287882
-0.2823938,-0.94917816,-0.6019865,0.5868606,0.05029657,-1.246511,0.37124917,0.014165406,-0.20498353,0.20508507,-0.71098626,-0.58900464
-0.3851776,-0.717252,-0.17812967,0.551972,-0.18712813,-0.75660366,0.43707347,0.13387288,-0.029569754,0.30427763,-0.7368566,-0.6586258
-0.72156096,-0.28068513,0.8893616,0.56360155,-0.8369221,0.43317133,1.1893513,0.73906064,0.9727947,0.62890786,-0.71098626,-1.0763526
-0.74024886,-0.17154343,1.0306472,0.528713,-0.8994023,0.6198027,3.070046,3.2728689,3.687532,2.9464068,0.26346356,-1.0365691
3.5486383,3.812129,-1.5752873,-3.8323581,2.9868653,2.0895247,0.2113901,2.7275348,3.8378863,6.4812694,5.4634037,4.015936
5.753818,4.3032665,-4.7149673,-5.4023433,5.723498,0.1765532,-4.264663,-2.1139677,-1.8421788,3.541562,5.9204464,6.7808895
1.4649308,-0.5535394,-3.0980322,-0.6691278,2.212111,-2.7862198,-3.60642,-4.9204426,-5.1499815,-2.3649042,-0.52127033,2.2754076
-0.9177845,-2.1633797,-0.94735134,1.5055927,-0.22461626,-2.5529308,-2.3463547,-4.208848,-4.573622,-3.8437748,-2.9272127,-1.0166773
-1.151384,-1.7950263,-0.13103448,1.4707043,-0.7119617,-1.6197739,-1.3872004,-2.233675,-2.8445432,-2.527219,-2.2545836,-1.4244583
-1.2167919,-1.3993877,0.43410796,1.3544091,-0.9868746,-0.8732483,-0.2493801,-0.7173803,-1.0068752,-0.8138931,-1.4784732,-1.0763526
-0.92712855,-1.194747,0.18293355,1.0869302,-0.68696964,-0.8732483,0.3524422,-0.025737086,-0.5140459,-0.24579021,-0.9610663,-0.93711036
-0.89909655,-1.1811043,0.13583834,1.063671,-0.64948153,-0.8965772,0.6721603,0.13387288,-0.12980619,-0.020352567,-0.9351959,-0.92716444
-0.45058545,-1.0583199,-0.46070087,0.73804444,-0.11215191,-1.246511,0.587529,0.3533366,0.053960618,0.17803256,-0.7368566,-0.75808454
-0.19829798,-0.78546554,-0.57058966,0.45893583,0.100280724,-1.0832086,0.6345464,0.5129466,0.08737277,0.20508507,-0.71098626,-0.7282469
-0.674841,-1.3721023,-0.44500247,1.0055234,-0.27460042,-1.4798002,0.606336,0.46639362,0.053960618,0.24115509,-0.9093256,-0.797868
-0.84303266,-1.6313138,-0.44500247,1.2264843,-0.38706478,-1.7130896,0.6157394,0.4996457,0.0121954335,0.16901505,-0.9869366,-0.8475974
-0.674841,-1.2766032,-0.33511367,0.9706348,-0.31208855,-1.3398267,0.62514293,0.4796945,0.0038423953,0.17803256,-0.8834552,-0.7680304
-0.7122169,-1.3175313,-0.31941527,1.0171529,-0.34957662,-1.3631556,0.7473881,0.4929953,-0.0629819,0.12392752,-0.8317145,-0.75808454
-0.674841,-1.1811043,-0.24092327,0.9241168,-0.34957662,-1.1765242,0.8038089,0.47304407,-0.03792279,0.12392752,-0.71098626,-0.71830106
-0.665497,-1.1674615,-0.22522487,0.91248727,-0.34957662,-1.1531954,0.7003707,0.439792,0.0121954335,0.15098004,-0.6247518,-0.6088964
-0.61877716,-1.0446771,-0.14673287,0.8310806,-0.34957662,-0.9898929,0.6627568,0.5728003,0.0957258,0.21410257,-0.5816345,-0.4895459
-0.5253373,-0.8946073,-0.13103448,0.71478534,-0.2995925,-0.8499193,0.587529,0.6991582,0.07901973,0.21410257,-0.53851724,-0.4398165
-0.5533693,-0.8400364,-0.03684406,0.70315576,-0.34957662,-0.75660366,0.5311082,0.6659061,0.07901973,0.21410257,-0.50402343,-0.38014126
-0.30108178,-0.5535394,-0.13103448,0.42404723,-0.137144,-0.56997234,0.48409083,0.6326541,0.1876092,0.22312008,-0.46952963,-0.33041185
-0.1328901,-0.48532584,-0.33511367,0.284493,0.05029657,-0.663288,0.43707347,0.6260036,0.20431527,0.18705006,-0.4091655,-0.26079074
-0.05813825,-0.430755,-0.39790726,0.22634536,0.112776764,-0.663288,0.40886307,0.5661499,0.1876092,0.39445272,-0.322931,-0.18122372
0.016613597,-0.10332987,-0.13103448,0.04027301,0.06279261,-0.19670953,0.36184567,0.6526053,0.20431527,0.40347022,-0.21082616,0.06742319
0.27824506,0.30595154,-0.11533607,-0.30861267,0.2252411,0.1765532,0.30542487,0.7457111,0.1876092,0.52069783,0.02200697,0.33596182
0.6146284,0.38780782,-0.5862881,-0.5412031,0.6376104,-0.10339387,0.060934532,0.7856136,0.20431527,0.6559604,0.25484014,0.6243923
0.57725245,0.101310834,-0.85316086,-0.40164885,0.72508264,-0.5466434,-0.23997663,0.91862196,0.21266833,0.6559604,0.46180287,1.0321732
1.0724834,0.71523297,-0.9787481,-0.95986587,1.0999638,-0.12672278,-0.4186426,0.9319228,0.2711396,0.93550307,0.6860125,1.1813613
1.352803,1.2200134,-0.8688593,-1.3552697,1.2499162,0.4098424,-0.50327384,1.0383295,0.3880821,0.97157305,0.7636236,1.28082
1.1472353,1.0563008,-0.7118753,-1.1575677,1.0499796,0.36318457,-0.4750634,1.1247848,0.42984727,1.0076431,0.7463767,1.2111989
1.0724834,1.0290154,-0.61768484,-1.0994202,0.95001125,0.43317133,-0.4186426,1.1713377,0.6303202,1.0617481,0.7118829,1.0918484
0.90429175,0.8653028,-0.5234945,-0.9249773,0.8125549,0.33985564,-0.08011756,1.2511427,0.7472627,0.9445206,0.70325947,1.0023355
0.5959404,0.40145057,-0.53919286,-0.5412031,0.61261827,-0.05673601,0.20198661,1.0516303,0.6553793,0.8723805,0.5825311,0.6542299
0.15677331,-0.23975702,-0.53919286,0.0053844433,0.31271335,-0.59330124,0.30542487,0.792264,0.6052611,0.77318794,0.28933388,0.33596182
-0.1328901,-0.66268116,-0.53919286,0.36589965,0.1252728,-0.94323504,0.59693253,0.67920697,0.5300837,0.7010479,0.116864905,0.08731494
-0.14223409,-0.62175304,-0.47639927,0.36589965,0.100280724,-0.8732483,0.68156374,0.6193532,0.46325943,0.62890786,-0.003863379,-0.0220897
-0.25436184,-0.7308947,-0.41360566,0.47056535,-0.012183619,-0.9199061,0.65335333,0.5594995,0.41314122,0.47561026,-0.19357926,-0.061873205
-0.51599336,-1.0583199,-0.35081205,0.77293295,-0.19962418,-1.1531954,0.6439499,0.5395482,0.35466993,0.2772251,-0.322931,-0.12154847
-0.45058545,-0.93553543,-0.31941527,0.6915263,-0.17463212,-1.0365508,0.606336,0.50629616,0.30455175,0.28624263,-0.34880134,-0.18122372
-0.4786174,-0.8673219,-0.19382808,0.66826725,-0.2371123,-0.8732483,0.606336,0.4863449,0.24608046,0.40347022,-0.3746717,-0.23095308
-0.22632992,-0.68996656,-0.41360566,0.43567678,0.012808458,-0.8965772,0.72858113,0.47304407,0.1876092,0.33133018,-0.40054205,-0.21106134
-0.14223409,-0.7445374,-0.61768484,0.41241774,0.16276091,-1.1065375,0.82261586,0.4530928,0.15419707,0.20508507,-0.4264124,-0.18122372
-0.45058545,-1.099248,-0.5234945,0.74967396,-0.087159835,-1.3164978,0.766195,0.4331416,0.14584403,0.15098004,-0.41778892,-0.15138608
-0.46927342,-1.0583199,-0.42930406,0.74967396,-0.14964002,-1.2231821,0.75679153,0.41319036,0.20431527,0.16901505,-0.3746717,-0.12154847
-0.39452156,-0.8946073,-0.36651045,0.62174916,-0.11215191,-1.0132217,0.71917766,0.4464424,0.22937441,0.16901505,-0.34880134,-0.10165671
-0.4225535,-0.82639366,-0.24092327,0.62174916,-0.17463212,-0.8732483,0.7097742,0.4530928,0.30455175,0.16901505,-0.31430757,-0.07181908
-0.4786174,-0.8400364,-0.14673287,0.6566377,-0.2621044,-0.8265905,0.6627568,0.46639362,0.33796388,0.15098004,-0.2884372,-0.0220897
-0.2823938,-0.8809645,-0.5548912,0.551972,0.037800536,-1.1765242,0.587529,0.4929953,0.32125783,0.22312008,-0.2539434,0.03758556
-0.36648965,-1.0446771,-0.5862881,0.6798967,0.00031242077,-1.3398267,0.5311082,0.4863449,0.32125783,0.34034768,-0.22807306,0.08731494
-0.22632992,-0.44439772,-0.14673287,0.3310111,-0.087159835,-0.47665665,0.46528387,0.55284905,0.32125783,0.40347022,-0.20220272,0.15693606
-0.30108178,-0.38982686,0.057346348,0.3542701,-0.22461626,-0.29002523,0.37124917,0.6260036,0.32125783,0.43954024,-0.17633238,0.10720668
-0.656153,-0.97646356,-0.021145662,0.8310806,-0.42455286,-0.8499193,0.3900561,0.5861012,0.31290478,0.3854352,-0.15046202,0.027639681
-0.39452156,-0.8400364,-0.30371684,0.61011964,-0.137144,-0.94323504,0.6909672,0.55284905,0.52173066,0.33133018,-0.12459167,0.17682782
-0.26370582,-0.77182287,-0.46070087,0.4938244,0.012808458,-0.9898929,0.7379846,0.5262474,0.5384368,0.28624263,-0.12459167,0.2365031
-0.22632992,-0.7308947,-0.46070087,0.45893583,0.037800536,-0.96656394,0.6439499,0.4929953,0.3880821,0.22312008,-0.10734478,0.15693606
-0.123546116,-0.5944676,-0.46070087,0.3310111,0.100280724,-0.8499193,0.59693253,0.47304407,0.42149425,0.25017262,-0.07285097,0.12709846
-0.17026603,-0.6353957,-0.42930406,0.37752917,0.06279261,-0.8499193,0.4934943,0.439792,0.37972906,0.3764177,-0.090097874,0.077369064
-0.2356739,-0.8946073,-0.6333833,0.528713,0.100280724,-1.2231821,0.46528387,0.41984072,0.36302298,0.39445272,-0.098721325,0.03758556
-0.17026603,-0.93553543,-0.79036725,0.5170834,0.20024902,-1.3864846,0.3524422,0.3998895,0.35466993,0.39445272,-0.15908548,-0.012143824
-0.09551417,-0.717252,-0.66478,0.36589965,0.20024902,-1.0832086,0.37124917,0.36663744,0.32125783,0.39445272,-0.14183858,-0.04198145
-0.04879427,-0.60811025,-0.61768484,0.29612252,0.2252411,-0.96656394,0.5311082,0.3533366,0.30455175,0.3493652,0.004760068,-0.04198145
-0.3851776,-1.0310344,-0.53919286,0.6798967,-0.037175693,-1.2698399,0.51230127,0.37993827,0.2711396,0.30427763,-0.06422753,-0.07181908
-0.4879614,-1.1128907,-0.46070087,0.7845625,-0.137144,-1.2931689,0.47468737,0.3932391,0.26278654,0.2591901,-0.10734478,-0.10165671
-0.25436184,-0.812751,-0.50779605,0.50545394,0.037800536,-1.0598797,0.46528387,0.37328786,0.21266833,0.2321376,-0.029733727,-0.091710836
-0.25436184,-0.8673219,-0.5862881,0.528713,0.06279261,-1.1765242,0.40886307,0.4796945,0.36302298,0.16901505,-0.003863379,-0.05192733
-0.1328901,-0.717252,-0.6019865,0.40078825,0.15026487,-1.0598797,0.48409083,0.5661499,0.52173066,0.2321376,0.056500763,0.03758556
-0.039450288,-0.25339973,-0.22522487,0.13330919,0.06279261,-0.38334095,0.606336,0.55284905,0.52173066,0.47561026,0.09961802,0.09726082
0.063333504,0.3468797,0.27712393,-0.19231746,-0.074663796,0.5031581,0.5311082,0.5395482,0.588555,0.5567678,0.14273524,0.16688195
0.007269615,0.40145057,0.44980633,-0.18068793,-0.17463212,0.6664606,0.3900561,0.5129466,0.52173066,0.5026628,0.22896975,0.29617837
0.12874137,0.59244853,0.46550477,-0.33187172,-0.11215191,0.85309196,0.3430387,0.53289783,0.5802019,0.58382034,0.22034629,0.29617837
0.34365293,0.81073195,0.35561594,-0.5644621,0.087784685,0.9464077,0.3148283,0.4863449,0.6136141,0.61087286,0.15998214,0.21661134
0.25021312,0.40145057,0.041647945,-0.3202422,0.15026487,0.36318457,0.3524422,0.4796945,0.47996554,0.48462775,0.09099456,0.1469902
0.4184048,0.18316713,-0.49209768,-0.33187172,0.47516188,-0.22003846,0.3148283,0.41984072,0.37972906,0.36740017,0.04787731,0.08731494
0.13808535,-0.45804042,-0.7589705,0.11005014,0.4001856,-0.94323504,0.3430387,0.41984072,0.23772743,0.25017262,-0.046980627,-0.0021979464
-0.16092205,-0.77182287,-0.6333833,0.42404723,0.15026487,-1.1298665,0.33363527,0.35998702,0.1625501,0.16901505,-0.07285097,0.16688195
-0.1328901,-0.8673219,-0.77466893,0.45893583,0.21274506,-1.3164978,0.3242318,0.33338538,0.0121954335,0.024734957,-0.14183858,0.11715258
-0.3478017,-1.0310344,-0.61768484,0.6566377,0.012808458,-1.3398267,0.36184567,0.28683245,0.045607578,0.024734957,-0.16770892,-0.032035574
-0.1328901,-0.8809645,-0.79036725,0.45893583,0.2252411,-1.3398267,0.29602137,0.20702745,-0.12980619,-0.09249262,-0.16770892,-0.10165671
-0.31042576,-0.8946073,-0.49209768,0.575231,-0.012183619,-1.1298665,0.3806526,0.34003577,0.0121954335,0.06982249,-0.2539434,-0.24089897
-0.70287293,-0.5671821,0.5282984,0.6798967,-0.6744736,-0.10339387,0.8508263,0.72575986,0.7973809,0.40347022,-0.22807306,-0.3701954
-0.90844053,-0.4034696,1.0620439,0.73804444,-1.0368587,0.45650026,2.8819764,3.113259,3.2197616,2.1979537,0.3583215,-0.638734
2.6516163,2.76164,-1.2770177,-2.8205895,2.2745912,1.4129862,0.78500193,3.146511,4.021653,5.579519,4.6183057,3.279941
6.4359283,4.330552,-5.829554,-5.8442655,6.6232123,-0.61663014,-4.847678,-1.6085359,-1.1989949,3.929315,6.4206066,7.019591
2.8945599,-0.07604445,-4.9504433,-1.762303,3.9115722,-3.7427058,-4.8570824,-4.747532,-5.041392,-1.8238537,0.7981174,3.3992915
-0.35714564,-2.6408746,-2.4386992,1.3544091,0.72508264,-4.045982,-2.9575803,-4.335206,-4.70727,-4.25858,-2.547781,-0.4398165
-0.46927342,-1.958739,-1.4653986,1.1334482,0.27522522,-2.762891,-1.8479706,-2.2935288,-2.9614856,-2.779709,-1.7802941,-0.91721857
-0.5066494,-1.0583199,-0.36651045,0.77293295,-0.18712813,-1.1765242,-0.39043218,-0.49126616,-0.8982856,-1.0573658,-0.9265725,-0.57905877
-0.51599336,-1.2493179,-0.57058966,0.8659692,-0.11215191,-1.4798002,0.13616233,0.2203283,-0.2885139,-0.57042044,-0.52127033,-0.39008713
-0.80565673,-1.5221721,-0.39790726,1.1567072,-0.3745687,-1.5964448,0.40886307,0.38658866,-0.0045106434,-0.33596525,-0.50402343,-0.4796
-0.70287293,-1.3584596,-0.38220885,1.0171529,-0.32458454,-1.4564713,0.587529,0.5794507,0.10407884,-0.28186023,-0.3746717,-0.39008713
-0.7682808,-1.3857449,-0.30371684,1.0753006,-0.38706478,-1.4098135,0.65335333,0.67920697,0.11243187,-0.20972021,-0.36604825,-0.400033
-0.59074515,-1.2356751,-0.44500247,0.90085775,-0.21212022,-1.3864846,0.56872207,0.6326541,0.13749099,-0.13758014,-0.27981377,-0.39008713
-0.5066494,-1.3311741,-0.68047845,0.88922817,-0.074663796,-1.6197739,0.5311082,0.6725565,0.08737277,-0.0744576,-0.24531996,-0.35030362
-0.60008913,-1.290246,-0.46070087,0.9241168,-0.21212022,-1.4331423,0.48409083,0.712459,0.10407884,0.09687501,-0.19357926,-0.28068247
-0.70287293,-1.4539585,-0.49209768,1.063671,-0.27460042,-1.5964448,0.4182665,0.72575986,0.045607578,0.078839995,-0.23669653,-0.21106134
-0.70287293,-1.3448168,-0.36651045,1.0055234,-0.32458454,-1.4098135,0.51230127,0.712459,0.0957258,0.078839995,-0.3056841,-0.15138608
-0.33845767,-0.75818014,-0.30371684,0.5403425,-0.099655874,-0.8499193,0.54051167,0.6991582,0.21266833,0.06982249,-0.15046202,-0.08176496
-0.17961001,-0.67632383,-0.47639927,0.40078825,0.075288646,-0.9199061,0.48409083,0.67920697,0.2544335,0.033752464,-0.055604078,-0.0021979464
-0.2730498,-0.8673219,-0.5548912,0.5403425,0.037800536,-1.1531954,0.4182665,0.69250774,0.22937441,0.033752464,-0.029733727,0.06742319
-0.21698594,-0.7991083,-0.5548912,0.47056535,0.075288646,-1.0832086,0.36184567,0.712459,0.22102135,0.051787477,0.013383519,0.12709846
-0.07682621,-0.5398967,-0.49209768,0.27286348,0.15026487,-0.8265905,0.29602137,0.7457111,0.17925619,0.19606757,0.04787731,0.20666546
-0.09551417,-0.5535394,-0.46070087,0.30775204,0.1252728,-0.80326146,0.23019704,0.81886566,0.21266833,0.20508507,0.073747665,0.25639483
-0.030106308,-0.44439772,-0.44500247,0.21471584,0.16276091,-0.70994586,0.29602137,0.838817,0.22102135,0.22312008,0.18585251,0.40558296
-0.011418347,-0.4171123,-0.46070087,0.19145681,0.17525695,-0.68661696,0.2772144,0.8654186,0.26278654,0.18705006,0.27208698,0.55477107
0.10070942,-0.28068513,-0.49209768,0.063532054,0.27522522,-0.59330124,0.15496926,0.99177647,0.41314122,0.31329516,0.47904977,0.8133639
0.20349321,0.1558817,-0.16243127,-0.19231746,0.20024902,0.013250755,-0.014293256,1.0582807,0.48831853,0.60185534,0.63427186,1.0122814
0.52118856,0.3468797,-0.47639927,-0.471426,0.525146,-0.05673601,-0.28699398,1.1048336,0.51337767,0.5928378,0.7291298,1.201253
1.343459,1.0699435,-1.0415417,-1.2854925,1.3123964,0.12989536,-0.4374495,1.2045898,0.5551428,0.80024046,1.0050801,1.5692505
1.4929627,1.2745843,-1.0415417,-1.471565,1.4123647,0.31652674,-0.46565998,1.2045898,0.5802019,0.9535381,1.0309505,1.609034
1.2500192,1.0563008,-0.8845577,-1.2273449,1.187436,0.24653997,-0.55029124,1.1646873,0.6136141,0.8723805,1.1430553,1.4598458
1.1098593,0.9335164,-0.79036725,-1.0877906,1.0624757,0.19988212,-0.4750634,1.144736,0.67208534,0.8363105,1.134432,1.370333
0.68938017,0.45602137,-0.61768484,-0.6226098,0.7000905,-0.08006494,-0.15534537,1.1048336,0.7806749,0.755153,0.93609256,1.2310908
0.68938017,0.44237867,-0.6490817,-0.6109803,0.7125866,-0.10339387,-0.02369673,1.0915327,0.8892643,0.7010479,0.8757284,1.0023355
0.4931566,0.25138068,-0.5548912,-0.40164885,0.5501381,-0.19670953,0.042127583,0.93857324,0.81408703,0.6469429,0.64289534,0.7934721
-0.011418347,0.074025415,0.10444154,-0.029504126,-0.04967173,0.12989536,0.30542487,0.7324103,0.64702624,0.58382034,0.47904977,0.7039593
-0.11420214,-0.32161328,-0.17812967,0.21471584,0.00031242077,-0.40666986,0.43707347,0.6326541,0.5718489,0.43954024,0.3928153,0.55477107
-0.2917378,-0.8946073,-0.53919286,0.575231,0.025304496,-1.1531954,0.3806526,0.5395482,0.48831853,0.28624263,0.30658078,0.37574533
-0.32911372,-0.8400364,-0.41360566,0.575231,-0.062167767,-1.0132217,0.36184567,0.4796945,0.42149425,0.20508507,0.24621665,0.2663407
-0.32911372,-0.8400364,-0.41360566,0.56360155,-0.04967173,-1.0132217,0.3148283,0.439792,0.3880821,0.15999754,0.19447595,0.24644895
-0.3478017,-0.812751,-0.35081205,0.56360155,-0.087159835,-0.94323504,0.28661788,0.3932391,0.33796388,0.1058925,0.15998214,0.21661134
-0.32911372,-0.7445374,-0.30371684,0.528713,-0.099655874,-0.8732483,0.25840747,0.34003577,0.2961987,0.051787477,0.09961802,0.1867737
-0.39452156,-0.82639366,-0.28801847,0.59849006,-0.137144,-0.9199061,0.23019704,0.33338538,0.24608046,0.015717458,0.056500763,0.15693606
-0.39452156,-0.7445374,-0.19382808,0.56360155,-0.17463212,-0.7799326,0.23960051,0.3533366,0.20431527,-0.047405083,0.013383519,0.16688195
-0.5253373,-0.812751,-0.05254246,0.6798967,-0.32458454,-0.73327476,0.23960051,0.3533366,0.1876092,-0.09249262,0.004760068,0.20666546
-0.5066494,-1.1128907,-0.42930406,0.7845625,-0.16213608,-1.2698399,0.23960051,0.37328786,0.15419707,-0.15561517,0.004760068,0.22655721
-0.63746506,-1.0856053,-0.19382808,0.8543396,-0.34957662,-1.0598797,0.24900399,0.3932391,0.14584403,-0.18266769,0.013383519,0.25639483
-0.92712855,-1.1538188,0.23002873,1.063671,-0.7119617,-0.80326146,0.28661788,0.37993827,0.0957258,-0.14659765,0.06512421,0.28623247
-0.7122169,-1.003749,0.057346348,0.8659692,-0.4995291,-0.80326146,0.28661788,0.35998702,0.15419707,-0.083475105,0.116864905,0.3061242
-0.54402524,-0.7991083,-0.021145662,0.6798967,-0.34957662,-0.68661696,0.24900399,0.3533366,0.32125783,-0.047405083,0.16860561,0.2663407
-0.5253373,-0.8946073,-0.14673287,0.71478534,-0.2995925,-0.8732483,0.23960051,0.3533366,0.32125783,0.051787477,0.21172285,0.24644895
-0.45058545,-0.82639366,-0.17812967,0.6333787,-0.22461626,-0.8265905,0.23960051,0.3533366,0.32125783,0.2321376,0.25484014,0.25639483
-0.33845767,-0.8809645,-0.44500247,0.5868606,-0.04967173,-1.0832086,0.23960051,0.3466862,0.32125783,0.2591901,0.26346356,0.25639483
-0.17961001,-0.77182287,-0.57058966,0.44730628,0.112776764,-1.0832086,0.23960051,0.3932391,0.32125783,0.18705006,0.26346356,0.25639483
-0.15157805,-0.67632383,-0.5234945,0.3891587,0.100280724,-0.94323504,0.23019704,0.42649114,0.31290478,0.13294502,0.26346356,0.25639483
-0.039450288,-0.5398967,-0.5548912,0.24960442,0.20024902,-0.8732483,0.19258314,0.3998895,0.2711396,0.06982249,0.26346356,0.25639483
0.007269615,-0.45804042,-0.53919286,0.19145681,0.2252411,-0.7799326,0.20198661,0.38658866,0.22937441,0.015717458,0.25484014,0.3061242
-0.36648965,-0.9901063,-0.5234945,0.6566377,-0.037175693,-1.2231821,0.16437274,0.36663744,0.19596224,-0.020352567,0.21172285,0.3061242
-0.51599336,-1.1128907,-0.42930406,0.79619205,-0.17463212,-1.2698399,0.1455658,0.3466862,0.15419707,-0.011335064,0.16860561,0.2365031
-0.46927342,-0.9628209,-0.31941527,0.70315576,-0.18712813,-1.0365508,0.1455658,0.33338538,0.12078491,-0.011335064,0.12548836,0.20666546
-0.4879614,-0.8946073,-0.20952646,0.6915263,-0.2371123,-0.9199061,0.107951894,0.3067837,0.13749099,-0.011335064,0.09099456,0.15693606
-0.46927342,-0.78546554,-0.11533607,0.6333787,-0.2621044,-0.75660366,0.089144945,0.3001333,0.1876092,-0.011335064,0.04787731,0.10720668
-0.5066494,-0.717252,0.02594954,0.62174916,-0.34957662,-0.59330124,0.060934532,0.27353165,0.1876092,-0.0744576,0.02200697,0.21661134
-0.30108178,-0.7036093,-0.30371684,0.4938244,-0.087159835,-0.8265905,0.060934532,0.2602308,0.13749099,-0.047405083,-0.003863379,0.2663407
0.007269615,-0.64903843,-0.7589705,0.27286348,0.31271335,-1.1065375,0.12675884,0.24027954,0.08737277,-0.011335064,-0.029733727,0.20666546
-0.011418347,-0.5535394,-0.61768484,0.24960442,0.23773713,-0.9199061,0.1455658,0.2136779,0.045607578,-0.0744576,-0.055604078,0.1867737
-0.3478017,-1.0173917,-0.5862881,0.6566377,0.00031242077,-1.2931689,0.1455658,0.17377539,0.0038423953,-0.11052762,-0.08147442,0.13704431
-0.49730536,-1.1674615,-0.50779605,0.8078215,-0.12464795,-1.3631556,0.1455658,0.15382414,-0.0629819,-0.16463266,-0.07285097,0.10720668
-0.656153,-0.93553543,0.010251137,0.8078215,-0.43704885,-0.7799326,0.1455658,0.12057205,0.070666686,-0.21873769,-0.021110278,0.1867737
-0.84303266,-0.9901063,0.26142555,0.94737583,-0.6619776,-0.6399591,0.13616233,0.08066956,0.22102135,-0.21873769,0.03063042,0.21661134
-0.61877716,-0.7991083,0.13583834,0.72641486,-0.46204093,-0.56997234,0.070338,0.20037705,0.17925619,-0.17365018,0.06512421,0.15693606
-0.45058545,-0.68996656,-0.03684406,0.56360155,-0.27460042,-0.61663014,0.03272411,0.3067837,0.1625501,-0.14659765,0.12548836,0.13704431
-0.5533693,-0.8536792,-0.05254246,0.70315576,-0.3370806,-0.75660366,-0.033100203,0.28018203,0.14584403,-0.11954513,0.15998214,0.08731494
-0.33845767,-0.8536792,-0.41360566,0.5868606,-0.062167767,-1.0365508,-0.070714094,0.29348287,0.11243187,-0.0744576,0.15998214,0.057477307
-0.45058545,-0.7991083,-0.16243127,0.62174916,-0.2371123,-0.80326146,-0.061310623,0.28683245,0.12078491,-0.047405083,0.116864905,0.10720668
-0.6468091,-0.4034696,0.62248874,0.575231,-0.6744736,0.10656645,0.107951894,0.2668812,0.28784567,0.006699951,0.18585251,0.2762866
-0.31042576,0.019454554,0.5282984,0.17982727,-0.41205677,0.4098424,0.23960051,0.24027954,0.42149425,0.1058925,0.34969807,0.44536644
-0.039450288,0.38780782,0.49690148,-0.14579935,-0.22461626,0.6897895,0.13616233,0.20702745,0.371376,0.18705006,0.40143874,0.45531234
0.2595571,0.7698038,0.44980633,-0.49468505,-0.012183619,0.99306554,0.051531058,0.20037705,0.35466993,0.30427763,0.45317945,0.5149876
0.21283719,0.67430484,0.41840953,-0.41327834,-0.024679653,0.8764209,-0.25878358,0.15382414,0.32125783,0.45757526,0.46180287,0.63433814
0.110053405,0.46966413,0.35561594,-0.2620946,-0.074663796,0.6431316,-0.5126773,0.15382414,0.2711396,0.31329516,0.3755684,0.58460873
0.14742933,0.22409526,0.02594954,-0.19231746,0.087784685,0.19988212,-0.4092391,0.093970396,0.2711396,0.16901505,0.32382768,0.55477107
0.3529969,0.04673998,-0.53919286,-0.23883553,0.45016977,-0.36001202,-0.3434148,0.04076707,0.1625501,0.11491001,0.26346356,0.52493346
0.306277,-0.15790072,-0.6961769,-0.1225403,0.48765787,-0.6399591,-0.20236273,0.014165406,0.14584403,0.060804985,0.17722905,0.4752041
-0.14223409,-0.58082485,-0.42930406,0.34264058,0.075288646,-0.80326146,-0.2117662,-0.078940414,0.045607578,0.078839995,0.17722905,0.36579946
-0.5253373,-1.0446771,-0.31941527,0.77293295,-0.22461626,-1.1065375,-0.12713493,-0.058989167,0.028901502,-0.2007027,0.082371116,0.11715258
-0.54402524,-1.1265334,-0.39790726,0.8194511,-0.19962418,-1.246511,-0.14594188,-0.12549333,-0.021216717,-0.44417533,0.15135871,0.20666546
-0.3851776,-1.0856053,-0.6019865,0.70315576,-0.024679653,-1.3631556,-0.089521036,0.16047455,-0.12980619,-0.44417533,0.004760068,0.08731494
-0.96450436,-1.1128907,0.33991754,1.0753006,-0.77444184,-0.68661696,0.107951894,0.20702745,0.17925619,-0.15561517,-0.090097874,0.057477307
-1.2167919,-0.67632383,1.2661232,1.0520415,-1.3242675,0.36318457,1.800577,1.6701187,1.7663332,0.809258,0.02200697,-0.29062834
0.6426603,1.6156521,0.7794728,-1.0877906,0.112776764,1.9728801,2.4494166,3.525585,4.1970673,3.821105,2.4107027,1.1017944
5.716442,4.439694,-4.4951897,-5.4488616,5.6110334,0.45650026,-3.3243158,0.16712497,1.2400919,5.0835557,6.265384,5.9056525
6.0061054,2.4478576,-7.2738066,-4.785979,6.910621,-3.2994561,-6.446269,-4.282003,-4.130911,0.47561026,3.6093621,5.657006
0.77347606,-2.0405953,-3.6474762,0.3891587,1.9746863,-4.4425735,-4.123611,-5.04015,-5.258571,-4.0872474,-1.6250719,0.74374276
-0.72156096,-2.9682999,-2.2032235,1.7149242,0.4001856,-4.1626263,-2.891756,-3.563758,-4.022321,-3.8888626,-2.2459602,-0.9470562
-0.7869688,-1.6995274,-0.6333833,1.2148548,-0.27460042,-1.9230499,-1.2461483,-1.3890723,-1.650059,-1.7697487,-1.1938994,-0.52932936
-1.160728,-1.3175313,0.43410796,1.284632,-0.9493865,-0.80326146,-0.23057315,-0.13214374,-0.48898682,-0.8319281,-0.52989376,-0.26079074
-1.0486002,-1.2766032,0.29282233,1.2032254,-0.81193006,-0.8732483,0.089144945,0.2269787,-0.32192606,-0.5433679,-0.40054205,-0.25084484
-1.0018803,-1.1401762,0.37131435,1.1101891,-0.81193006,-0.70994586,0.3900561,0.29348287,0.028901502,-0.3720353,-0.2884372,-0.20111547
-0.665497,-0.97646356,-0.0054472582,0.8310806,-0.43704885,-0.8265905,0.3242318,0.41984072,0.14584403,-0.3900703,-0.19357926,-0.15138608
-0.69352895,-0.90825003,0.12013994,0.8078215,-0.5120251,-0.663288,0.37124917,0.47304407,0.22102135,-0.31793025,-0.22807306,-0.11160259
-0.8150007,-1.2629606,-0.08393927,1.0404121,-0.4995291,-1.1298665,0.25840747,0.439792,0.11243187,-0.29087773,-0.20220272,-0.061873205
-0.7122169,-1.1128907,-0.08393927,0.9241168,-0.43704885,-1.0132217,0.3900561,0.46639362,0.08737277,-0.24579021,-0.21944962,-0.032035574
-0.59074515,-0.90825003,-0.05254246,0.7613034,-0.3745687,-0.80326146,0.5593186,0.4331416,0.020548465,-0.2277552,-0.21082616,0.0077479267
-0.5533693,-0.812751,-0.0054472582,0.6915263,-0.3620727,-0.68661696,0.52170473,0.41319036,-0.03792279,-0.2007027,-0.19357926,0.03758556
-0.7122169,-0.67632383,0.41840953,0.72641486,-0.6369855,-0.2666963,0.47468737,0.3466862,-0.029569754,-0.18266769,-0.13321511,0.08731494
-0.45992944,-0.60811025,0.07304473,0.5403425,-0.3370806,-0.45332772,0.4182665,0.40653995,0.07901973,-0.13758014,-0.07285097,0.10720668
-0.22632992,-0.58082485,-0.28801847,0.3891587,-0.037175693,-0.70994586,0.37124917,0.6326541,0.17090315,-0.16463266,-0.021110278,0.06742319
-0.49730536,-0.82639366,-0.11533607,0.66826725,-0.27460042,-0.80326146,0.3242318,0.65925574,0.15419707,-0.20972021,0.039253864,0.017693805
-0.46927342,-0.77182287,-0.09963767,0.62174916,-0.27460042,-0.73327476,0.24900399,0.64595485,0.15419707,-0.18266769,0.09099456,0.03758556
-0.44124147,-0.67632383,-0.03684406,0.56360155,-0.28709647,-0.59330124,0.18317966,0.6526053,0.13749099,-0.11954513,0.03063042,0.10720668
-0.36648965,-0.37618417,0.18293355,0.3891587,-0.31208855,-0.19670953,0.11735537,0.6526053,0.23772743,-0.0744576,0.12548836,0.33596182
-0.04879427,0.005811837,0.088743135,0.028643489,-0.074663796,0.059908595,0.042127583,0.712459,0.32961085,-0.011335064,0.26346356,0.44536644
0.1661173,-0.11697259,-0.41360566,-0.052763168,0.27522522,-0.40666986,-0.014293256,0.6659061,0.32961085,0.078839995,0.33245116,0.54482526
0.43709275,0.060382698,-0.68047845,-0.29698315,0.5626341,-0.45332772,-0.108327985,0.712459,0.30455175,0.16901505,0.43593255,0.66417575
0.8669158,0.6470194,-0.7118753,-0.82031167,0.86253905,0.03657967,-0.2493801,0.9252724,0.42149425,0.44855776,0.63427186,0.90287673
1.0257635,0.9062309,-0.68047845,-1.0180135,0.95001125,0.2698689,-0.36222175,1.064931,0.62196714,0.5748028,0.8326112,1.2310908
1.0537955,0.91987365,-0.7118753,-1.0529021,0.98749936,0.24653997,-0.39983565,1.0383295,0.6136141,0.6469429,0.92746913,1.3305494
1.324771,1.3564404,-0.66478,-1.4017878,1.1499479,0.6664606,-0.35281828,1.0582807,0.6052611,0.8182755,1.0913147,1.4896834
1.5209945,1.5883666,-0.72757363,-1.6227487,1.2999004,0.8064341,-0.4186426,1.2045898,0.66373235,0.755153,1.0654444,1.4200623
1.4649308,1.520153,-0.6961769,-1.5529717,1.2499162,0.78310525,-0.4750634,1.1513865,0.805734,0.71908295,0.93609256,1.2609283
0.8669158,0.9062309,-0.41360566,-0.9249773,0.7375787,0.4798292,-0.22116968,1.0383295,0.87255824,0.6830129,0.86710495,1.0620108
0.34365293,0.04673998,-0.5234945,-0.23883553,0.43767378,-0.3366831,-0.070714094,0.951874,0.7472627,0.62890786,0.7205063,0.6542299
0.17546128,-0.15790072,-0.47639927,-0.04113365,0.3002173,-0.47665665,-0.014293256,0.75236154,0.6136141,0.5657853,0.5480374,0.4254747
0.063333504,-0.18518615,-0.31941527,0.04027301,0.17525695,-0.38334095,0.13616233,0.5461986,0.47161248,0.41248772,0.38419184,0.25639483
0.23152515,0.12859626,-0.25662166,-0.19231746,0.25023317,-0.08006494,0.1737762,0.42649114,0.35466993,0.2772251,0.28933388,0.15693606
-0.039450288,-0.17154343,-0.13103448,0.09842063,0.025304496,-0.24336739,0.3242318,0.36663744,0.28784567,0.15999754,0.19447595,0.077369064
-0.40386558,-0.5944676,-0.0054472582,0.50545394,-0.2621044,-0.5233145,0.4182665,0.2668812,0.21266833,0.060804985,0.12548836,-0.0220897
-0.21698594,-0.48532584,-0.20952646,0.34264058,-0.062167767,-0.56997234,0.30542487,0.15382414,0.14584403,-0.020352567,0.04787731,-0.10165671
-0.4225535,-0.90825003,-0.33511367,0.6566377,-0.14964002,-1.0132217,0.24900399,0.10062081,0.0957258,-0.0744576,-0.03835718,-0.14144021
-0.6094332,-0.8946073,-0.021145662,0.7613034,-0.39956078,-0.7799326,0.16437274,0.060718313,0.037254542,-0.13758014,-0.08147442,-0.14144021
-0.45058545,-0.67632383,-0.021145662,0.56360155,-0.28709647,-0.59330124,0.11735537,0.014165406,-0.021216717,-0.19168517,-0.08147442,-0.14144021
-0.57205725,-0.66268116,0.19863196,0.6333787,-0.46204093,-0.40666986,0.07974148,-0.025737086,-0.07968798,-0.26382524,-0.08147442,-0.14144021
-0.44124147,-0.45804042,0.21433033,0.47056535,-0.3745687,-0.24336739,0.15496926,-0.078940414,-0.12980619,-0.26382524,-0.08147442,-0.14144021
-0.35714564,-0.7036093,-0.20952646,0.5170834,-0.14964002,-0.73327476,0.29602137,-0.032387502,-0.10474709,-0.2277552,-0.08147442,-0.11160259
-0.5346813,-0.92189264,-0.16243127,0.73804444,-0.28709647,-0.9199061,0.28661788,0.06736873,-0.046275828,-0.24579021,-0.06422753,-0.061873205
-0.5627132,-0.78546554,0.057346348,0.6798967,-0.39956078,-0.61663014,0.2772144,0.14717372,0.0121954335,-0.2007027,0.013383519,-0.032035574
-0.5814012,-0.7445374,0.12013994,0.6798967,-0.43704885,-0.5233145,0.23960051,0.2203283,0.062313657,-0.19168517,0.073747665,-0.0021979464
-0.40386558,-0.5671821,0.041647945,0.4938244,-0.28709647,-0.45332772,0.23960051,0.20702745,0.12078491,-0.19168517,0.056500763,0.04753143
-0.3197697,-0.51261127,-0.068240866,0.41241774,-0.17463212,-0.47665665,0.2772144,0.28018203,0.14584403,-0.13758014,0.04787731,0.04753143
-0.25436184,-0.48532584,-0.13103448,0.37752917,-0.11215191,-0.5233145,0.28661788,0.3466862,0.10407884,-0.047405083,0.04787731,0.0077479267
-0.25436184,-0.4171123,-0.03684406,0.3310111,-0.16213608,-0.38334095,0.28661788,0.27353165,0.11243187,-0.03838758,0.04787731,-0.012143824
-0.5627132,-0.7445374,0.088743135,0.66826725,-0.41205677,-0.56997234,0.2772144,0.2269787,0.08737277,-0.05642259,0.056500763,-0.04198145
-0.45058545,-0.4171123,0.27712393,0.44730628,-0.41205677,-0.1500517,0.30542487,0.16712497,0.070666686,-0.05642259,0.02200697,-0.07181908
-0.31042576,-0.062401734,0.43410796,0.22634536,-0.3745687,0.2698689,0.25840747,0.12722246,0.070666686,-0.05642259,-0.003863379,-0.10165671
-0.46927342,-0.37618417,0.35561594,0.44730628,-0.46204093,-0.05673601,0.33363527,0.08066956,0.045607578,-0.047405083,0.004760068,-0.091710836
-0.44124147,-0.3488987,0.33991754,0.41241774,-0.42455286,-0.05673601,0.28661788,0.04076707,0.020548465,-0.27284274,-0.029733727,-0.091710836
-0.2823938,-0.18518615,0.27712393,0.24960442,-0.2995925,0.059908595,0.19258314,-0.012436257,-0.0045106434,-0.3990878,-0.03835718,-0.091710836
-0.4318975,-0.4989686,0.13583834,0.48219487,-0.3370806,-0.3366831,0.30542487,-0.045688335,-0.029569754,-0.3630178,-0.03835718,-0.091710836
-0.6468091,-0.97646356,-0.03684406,0.8194511,-0.41205677,-0.8499193,0.24900399,0.02081582,-0.046275828,-0.38105276,-0.08147442,-0.091710836
-0.3758336,-0.68996656,-0.16243127,0.528713,-0.17463212,-0.70994586,0.22079356,0.034116652,-0.07968798,-0.3630178,-0.08147442,-0.05192733
-0.2917378,-0.5671821,-0.16243127,0.42404723,-0.137144,-0.59330124,0.19258314,0.0075149904,-0.096394055,-0.38105276,-0.090097874,-0.04198145
-0.36648965,-0.5535394,-0.021145662,0.47056535,-0.2371123,-0.49998552,0.1455658,-0.0057858406,-0.121453166,-0.34498277,-0.12459167,-0.04198145
-0.35714564,-0.4989686,0.02594954,0.43567678,-0.24960834,-0.40666986,0.12675884,-0.032387502,-0.14651227,-0.32694775,-0.12459167,-0.0021979464
-0.41320953,-0.48532584,0.15153675,0.45893583,-0.3370806,-0.29002523,0.09854842,-0.045688335,-0.13815923,-0.29087773,-0.14183858,0.0077479267
-0.35714564,-0.4034696,0.13583834,0.3891587,-0.2995925,-0.24336739,0.070338,-0.032387502,-0.13815923,-0.27284274,-0.17633238,-0.0021979464
-0.4786174,-0.7445374,-0.05254246,0.61011964,-0.2995925,-0.663288,0.042127583,0.027466236,-0.12980619,-0.2367727,-0.20220272,-0.061873205
-0.79631275,-0.7445374,0.48120314,0.8078215,-0.7119617,-0.29002523,0.23019704,0.07401915,-0.15486531,-0.2548077,-0.23669653,-0.12154847
-0.94581646,-0.90825003,0.5439968,0.9822644,-0.84941816,-0.36001202,0.30542487,0.054067895,-0.17157139,-0.3720353,-0.2539434,-0.17127784
-0.45992944,-0.5944676,0.088743135,0.5403425,-0.3370806,-0.42999876,0.24900399,0.0008645753,-0.10474709,-0.32694775,-0.21082616,-0.23095308
-0.067482226,0.14223897,0.27712393,-0.017874602,-0.16213608,0.31652674,0.23019704,-0.032387502,-0.03792279,-0.28186023,-0.14183858,-0.28068247
-0.2823938,-0.14425802,0.30852073,0.2379749,-0.31208855,0.10656645,0.19258314,-0.09224124,0.037254542,-0.2367727,-0.090097874,-0.25084484
-0.6094332,-0.48532584,0.46550477,0.5868606,-0.5870013,-0.05673601,0.13616233,-0.09224124,0.08737277,-0.17365018,-0.029733727,-0.13149433
-0.3851776,-0.11697259,0.51259995,0.29612252,-0.46204093,0.2698689,0.22079356,-0.032387502,0.15419707,-0.14659765,0.03063042,-0.05192733
-0.0020743664,0.428736,0.51259995,-0.18068793,-0.21212022,0.7364474,0.24900399,0.027466236,0.22102135,-0.047405083,0.10824147,0.04753143
0.025957577,0.45602137,0.48120314,-0.21557648,-0.17463212,0.7364474,0.09854842,0.07401915,0.1876092,-0.011335064,0.21172285,0.08731494
0.315621,0.81073195,0.40271112,-0.55283266,0.05029657,0.99306554,-0.08011756,0.06736873,0.2711396,0.15999754,0.26346356,0.22655721
0.20349321,1.00173,0.8108696,-0.55283266,-0.18712813,1.436315,-0.3810287,0.014165406,0.20431527,0.25017262,0.41868564,0.32601595
0.007269615,0.49694955,0.5596951,-0.21557648,-0.22461626,0.82976305,-0.49387038,0.027466236,0.037254542,0.042769972,0.29795736,0.20666546
0.11939739,0.1695244,-0.0054472582,-0.15742888,0.087784685,0.15322427,-0.3716252,-0.03903792,-0.046275828,-0.020352567,0.056500763,0.16688195
0.063333504,-0.19882888,-0.33511367,0.051902536,0.17525695,-0.42999876,-0.22116968,-0.019086672,-0.15486531,-0.101510115,0.056500763,0.04753143
0.09136545,-0.17154343,-0.35081205,0.017013967,0.20024902,-0.40666986,-0.12713493,-0.09224124,-0.17157139,-0.11052762,0.04787731,0.0077479267
-0.011418347,-0.3488987,-0.38220885,0.15656824,0.15026487,-0.56997234,-0.070714094,-0.23189996,-0.32192606,-0.2007027,-0.003863379,-0.091710836
-0.2730498,-0.526254,-0.14673287,0.3891587,-0.11215191,-0.5466434,0.0045136907,-0.23189996,-0.29686692,-0.29087773,-0.021110278,-0.16133197
-0.2823938,-0.66268116,-0.28801847,0.45893583,-0.074663796,-0.75660366,-0.061310623,-0.23189996,-0.313573,-0.4171228,-0.055604078,-0.23095308
-0.7309049,-0.9901063,0.088743135,0.8775987,-0.5245212,-0.7799326,0.07974148,-0.05233875,-0.18827747,-0.34498277,-0.10734478,-0.34035772
-1.0205684,-0.4989686,1.140536,0.8427101,-1.136827,0.4098424,0.54991513,0.3134341,0.4549064,0.024734957,-0.21082616,-0.38014126
-0.8336887,0.101310834,1.5172976,0.47056535,-1.1743151,1.2030258,2.5622585,2.634429,2.6684613,1.665921,0.29795736,-0.638734
3.0440636,3.4710612,-1.1200337,-3.3788066,2.4745276,2.1361825,0.62514293,2.7873886,3.5121179,4.948293,4.3423553,2.8423226
7.276887,5.067259,-6.394696,-6.681591,7.4104624,-0.40666986,-5.355466,-2.120618,-1.2825253,3.5054924,6.0153046,6.3233795
3.1375031,0.46966413,-4.7306657,-2.157707,3.9865484,-3.1128247,-5.308449,-5.339419,-5.033039,-2.094379,0.7118829,2.9815648
-0.60008913,-2.436234,-1.7950649,1.4241862,0.31271335,-3.416101,-3.1832635,-4.9270935,-4.8325663,-4.40286,-2.590898,-0.75808454
-0.60008913,-1.999667,-1.2927161,1.2264843,0.112776764,-2.6695755,-2.2241096,-2.8987164,-3.1870177,-3.0863044,-1.8751519,-1.195703
-1.0953202,-1.4130304,0.21433033,1.284632,-0.81193006,-1.0365508,-0.6631329,-0.9501448,-1.1572298,-1.381996,-0.9265725,-0.77797633
-0.45992944,-1.0310344,-0.41360566,0.72641486,-0.137144,-1.1765242,-0.11773146,-0.21194872,-0.58922327,-0.9401381,-0.46952963,-0.54922116
-0.57205725,-0.66268116,0.19863196,0.6450082,-0.46204093,-0.40666986,0.18317966,-0.012436257,-0.37204427,-0.669613,-0.41778892,-0.51938355
-0.8336887,-0.62175304,0.68528235,0.7845625,-0.824426,-0.010078171,0.29602137,0.07401915,-0.22168961,-0.42614034,-0.34880134,-0.3701954
-0.72156096,-0.717252,0.38701272,0.74967396,-0.6369855,-0.31335416,0.3900561,0.2136779,-0.18827747,-0.4171228,-0.3574248,-0.3105201
-0.79631275,-0.7036093,0.51259995,0.79619205,-0.7369538,-0.22003846,0.39945957,0.2668812,-0.054628868,-0.32694775,-0.3056841,-0.28068247
-0.72156096,-0.7991083,0.29282233,0.7845625,-0.5870013,-0.45332772,0.36184567,0.2136779,-0.012863682,-0.32694775,-0.29706067,-0.29062834
-0.7309049,-0.77182287,0.33991754,0.7845625,-0.61199343,-0.40666986,0.37124917,0.1870762,-0.18827747,-0.2548077,-0.27981377,-0.24089897
-0.63746506,-0.717252,0.24572714,0.70315576,-0.5245212,-0.42999876,0.3148283,0.16712497,-0.33863214,-0.24579021,-0.24531996,-0.24089897
-0.6094332,-0.717252,0.19863196,0.6798967,-0.487033,-0.45332772,0.3430387,0.113921635,-0.23004264,-0.3720353,-0.26256686,-0.23095308
-0.72156096,-0.7308947,0.37131435,0.7613034,-0.6244894,-0.3366831,0.3430387,0.16712497,-0.21333657,-0.46221036,-0.24531996,-0.16133197
-0.54402524,-0.62175304,0.18293355,0.59849006,-0.43704885,-0.38334095,0.3148283,0.24027954,-0.15486531,-0.49828035,-0.2539434,-0.12154847
-0.32911372,-0.11697259,0.41840953,0.24960442,-0.38706478,0.22321105,0.40886307,0.32673493,-0.10474709,-0.4351578,-0.20220272,-0.061873205
-0.2730498,0.08766812,0.5596951,0.13330919,-0.39956078,0.4798292,0.3900561,0.4929953,-0.046275828,-0.29989526,-0.15046202,-0.0021979464
-0.14223409,0.101310834,0.35561594,0.051902536,-0.2371123,0.33985564,0.12675884,0.4863449,0.0038423953,-0.24579021,-0.08147442,0.04753143
-0.1328901,0.25138068,0.51259995,-0.029504126,-0.2995925,0.5731449,0.07974148,0.4863449,0.070666686,-0.2277552,-0.03835718,0.09726082
-0.2356739,-0.2261143,0.13583834,0.2379749,-0.21212022,-0.10339387,0.051531058,0.4863449,0.10407884,-0.24579021,0.03063042,0.21661134
-0.20764196,-0.062401734,0.27712393,0.15656824,-0.24960834,0.15322427,-0.033100203,0.4863449,0.07901973,-0.2277552,0.19447595,0.28623247
0.08202147,0.428736,0.35561594,-0.23883553,-0.087159835,0.6198027,-0.14594188,0.5262474,0.070666686,-0.09249262,0.33245116,0.41552883
0.5398765,0.9062309,0.13583834,-0.72727543,0.3002173,0.8764209,-0.2775905,0.6127028,0.0121954335,0.15999754,0.56528425,0.7039593
1.0351075,1.192728,-0.36651045,-1.1459383,0.837547,0.7364474,-0.4092391,0.7324103,0.12913795,0.32231265,0.6773891,0.93271434
1.3901789,1.2609415,-0.8845577,-1.4017878,1.2749083,0.4098424,-0.65372944,0.7590119,0.28784567,0.3854352,0.8067408,1.1813613
1.5957464,1.7384365,-0.68047845,-1.7274145,1.3373885,0.96973664,-0.72895724,0.83216655,0.28784567,0.60185534,0.97920984,1.3504412
1.4368987,1.6156521,-0.5548912,-1.5762308,1.17494,0.96973664,-0.6725363,0.8255161,0.24608046,0.6198904,0.9188457,1.28082
1.324771,1.6292948,-0.35081205,-1.518083,1.0249876,1.1097101,-0.65372944,0.7590119,0.41314122,0.6559604,0.8843519,1.1614696
1.5583706,1.6838657,-0.68047845,-1.6925259,1.3123964,0.9230788,-0.4844669,0.7324103,0.64702624,0.7461355,0.8498581,1.0520649
1.0164195,1.4246541,-0.068240866,-1.2389745,0.7125866,1.1563679,-0.22116968,0.6725565,0.7054975,0.6379254,0.7981174,0.89293087
0.28758904,0.8516601,0.49690148,-0.5412031,-0.012183619,1.0863812,-0.08011756,0.64595485,0.67208534,0.5297153,0.56528425,0.66417575
0.23152515,0.41509324,0.088743135,-0.3202422,0.112776764,0.4098424,0.0045136907,0.41984072,0.47996554,0.32231265,0.32382768,0.39563707
0.09136545,0.38780782,0.29282233,-0.227206,-0.062167767,0.54981595,0.089144945,0.20702745,0.3880821,0.15999754,0.24621665,0.20666546
0.007269615,0.21045254,0.23002873,-0.087651744,-0.087159835,0.33985564,0.15496926,0.13387288,0.3463169,0.033752464,0.12548836,0.20666546
-0.011418347,0.19680984,0.24572714,-0.076022215,-0.11215191,0.33985564,0.18317966,0.04741748,0.21266833,-0.083475105,0.073747665,0.20666546
-0.20764196,-0.08968717,0.24572714,0.16819777,-0.2371123,0.10656645,0.13616233,0.0075149904,0.070666686,-0.16463266,0.013383519,0.15693606
-0.39452156,-0.37618417,0.23002873,0.41241774,-0.34957662,-0.12672278,0.107951894,-0.025737086,0.0038423953,-0.2548077,-0.046980627,0.15693606
-0.3758336,-0.36254144,0.23002873,0.3891587,-0.3370806,-0.12672278,0.07974148,-0.065639585,-0.0045106434,-0.24579021,-0.098721325,0.1469902
-0.30108178,-0.4171123,0.02594954,0.36589965,-0.21212022,-0.3366831,0.03272411,-0.10554208,-0.046275828,-0.2367727,-0.15908548,0.10720668
-0.22632992,-0.048759017,0.30852073,0.15656824,-0.27460042,0.19988212,0.0045136907,-0.13879415,-0.07968798,-0.2367727,-0.13321511,0.08731494
-0.21698594,0.060382698,0.43410796,0.11005014,-0.31208855,0.36318457,0.03272411,-0.12549333,-0.096394055,-0.2367727,-0.12459167,0.057477307
-0.45992944,-0.335256,0.38701272,0.43567678,-0.46204093,-0.010078171,0.11735537,-0.09224124,-0.054628868,-0.24579021,-0.12459167,0.017693805
-0.45058545,-0.4034696,0.29282233,0.44730628,-0.41205677,-0.12672278,0.13616233,-0.078940414,-0.029569754,-0.20972021,-0.08147442,0.0077479267
-0.44124147,-0.30797058,0.38701272,0.40078825,-0.44954494,0.013250755,0.089144945,-0.045688335,-0.0045106434,-0.15561517,-0.08147442,-0.032035574
-0.684185,-0.36254144,0.7323775,0.575231,-0.74944985,0.22321105,0.03272411,-0.025737086,0.037254542,-0.09249262,-0.07285097,-0.04198145
-0.40386558,0.033097263,0.7166792,0.2379749,-0.5495132,0.54981595,0.0045136907,0.0008645753,0.062313657,-0.03838758,-0.03835718,-0.04198145
-0.09551417,0.46966413,0.7166792,-0.14579935,-0.3620727,0.9230788,-0.042503674,0.08066956,0.10407884,0.024734957,-0.03835718,-0.032035574
-0.15157805,0.40145057,0.7166792,-0.076022215,-0.38706478,0.8764209,-0.089521036,0.14717372,0.19596224,0.078839995,-0.03835718,0.0077479267
-0.17961001,0.3605224,0.7166792,-0.04113365,-0.41205677,0.85309196,-0.05190715,0.17377539,0.30455175,0.024734957,-0.03835718,0.0077479267
-0.188954,0.30595154,0.6695839,-0.017874602,-0.39956078,0.75977623,-0.042503674,0.12722246,0.26278654,-0.029370073,-0.03835718,0.0077479267
-0.14223409,0.2786661,0.5439968,-0.029504126,-0.31208855,0.6431316,-0.042503674,0.08066956,0.17925619,-0.065440096,-0.012486829,-0.0220897
-0.15157805,0.1558817,0.43410796,0.017013967,-0.27460042,0.45650026,0.0045136907,0.034116652,0.11243187,-0.12856264,0.013383519,-0.061873205
-0.0020743664,0.29230884,0.33991754,-0.1225403,-0.137144,0.4798292,0.013917164,-0.019086672,0.028901502,-0.16463266,0.04787731,-0.08176496
0.18480524,0.428736,0.18293355,-0.29698315,0.037800536,0.5031581,-0.014293256,-0.065639585,-0.03792279,-0.21873769,0.039253864,-0.13149433
0.110053405,0.2786661,0.13583834,-0.18068793,0.012808458,0.31652674,-0.042503674,-0.058989167,-0.054628868,-0.2367727,-0.003863379,-0.13149433
-0.08617019,0.21045254,0.38701272,-0.04113365,-0.21212022,0.45650026,-0.070714094,-0.045688335,-0.054628868,-0.2367727,-0.046980627,0.027639681
-0.14223409,0.101310834,0.33991754,0.04027301,-0.2371123,0.33985564,-0.089521036,-0.045688335,-0.054628868,-0.26382524,-0.08147442,0.08731494
-0.26370582,0.033097263,0.48120314,0.14493872,-0.3745687,0.38651347,-0.12713493,-0.019086672,-0.054628868,-0.29087773,-0.12459167,0.017693805
-0.45992944,-0.08968717,0.6538856,0.31938156,-0.5620093,0.38651347,-0.1365384,-0.0057858406,-0.0629819,-0.27284274,-0.16770892,-0.032035574
-0.35714564,-0.11697259,0.46550477,0.27286348,-0.42455286,0.22321105,-0.09892451,-0.019086672,0.0121954335,-0.24579021,-0.14183858,-0.061873205
-0.45058545,-0.30797058,0.40271112,0.41241774,-0.46204093,0.03657967,-0.05190715,-0.045688335,0.053960618,-0.2367727,-0.11596822,-0.13149433
-0.31042576,-0.21247159,0.27712393,0.284493,-0.31208855,0.013250755,-0.004889783,-0.078940414,0.020548465,-0.2367727,-0.090097874,-0.12154847
-0.21698594,-0.15790072,0.18293355,0.20308633,-0.22461626,0.013250755,0.023320638,-0.09224124,0.037254542,-0.2367727,-0.06422753,-0.091710836
-0.32911372,-0.29432786,0.21433033,0.3310111,-0.2995925,-0.08006494,0.07974148,-0.12549333,-0.0045106434,-0.2367727,-0.03835718,-0.091710836
-0.08617019,0.101310834,0.26142555,0.0053844433,-0.16213608,0.2698689,0.089144945,-0.14544456,-0.012863682,-0.2548077,-0.029733727,-0.091710836
-0.2823938,-0.19882888,0.23002873,0.26123393,-0.28709647,-0.010078171,0.042127583,-0.11884291,-0.029569754,-0.29989526,-0.17633238,-0.28068247
-0.33845767,-0.28068513,0.24572714,0.3310111,-0.32458454,-0.05673601,0.060934532,-0.11219248,0.062313657,-0.34498277,-0.19357926,-0.34035772
-0.039450288,0.1695244,0.24572714,-0.04113365,-0.12464795,0.31652674,0.03272411,-0.11219248,0.17090315,-0.3720353,-0.11596822,-0.26079074
-0.16092205,-0.007830876,0.24572714,0.09842063,-0.21212022,0.1765532,0.0045136907,-0.078940414,0.14584403,-0.30891275,-0.06422753,-0.23095308
-0.3758336,-0.21247159,0.38701272,0.31938156,-0.39956078,0.10656645,0.0045136907,-0.078940414,0.17090315,-0.21873769,0.004760068,-0.19116959
-0.11420214,0.101310834,0.30852073,0.028643489,-0.19962418,0.31652674,0.03272411,-0.072289996,0.13749099,-0.15561517,0.039253864,-0.11160259
0.007269615,0.5651631,0.63818717,-0.25046507,-0.24960834,0.96973664,0.060934532,-0.045688335,0.23772743,-0.065440096,0.15135871,-0.032035574
0.063333504,1.00173,1.0620439,-0.471426,-0.3745687,1.6462753,0.051531058,-0.025737086,0.37972906,0.033752464,0.22034629,0.15693606
0.28758904,1.2609415,0.9521551,-0.71564597,-0.18712813,1.7862487,0.03272411,-0.0057858406,0.30455175,0.14196253,0.27208698,0.2762866
0.22218117,1.0835862,0.8736632,-0.59935075,-0.21212022,1.5762886,-0.20236273,0.027466236,0.2961987,0.2682076,0.29795736,0.19671959
0.17546128,1.00173,0.8422663,-0.5412031,-0.22461626,1.4829729,-0.50327384,-0.012436257,0.24608046,0.2321376,0.22896975,0.16688195
0.18480524,0.8380174,0.6538856,-0.4830555,-0.137144,1.1796969,-0.4750634,-0.03903792,0.21266833,0.09687501,0.15998214,0.10720668
0.4184048,0.7561611,0.15153675,-0.5877212,0.21274506,0.75977623,-0.4092391,-0.09224124,0.17925619,0.024734957,0.116864905,0.077369064
0.3623409,0.45602137,-0.08393927,-0.4249079,0.27522522,0.31652674,-0.35281828,-0.10554208,0.10407884,-0.101510115,0.02200697,0.017693805
0.05398952,0.1695244,0.10444154,-0.11091078,-0.012183619,0.22321105,-0.26818702,-0.16539581,0.08737277,-0.14659765,0.004760068,0.017693805
-0.10485816,-0.2261143,-0.08393927,0.15656824,-0.037175693,-0.2666963,-0.25878358,-0.17869665,-0.029569754,-0.29087773,-0.090097874,-0.0220897
-0.3197697,-0.38982686,0.088743135,0.36589965,-0.2371123,-0.2666963,-0.19295925,-0.11884291,0.0038423953,-0.28186023,-0.098721325,-0.061873205
-0.188954,-0.14425802,0.13583834,0.17982727,-0.17463212,-0.033407092,-0.28699398,-0.13879415,-0.15486531,-0.28186023,-0.17633238,-0.061873205
-0.3197697,-0.23975702,0.26142555,0.30775204,-0.31208855,-0.033407092,-0.11773146,-0.03903792,0.13749099,-0.2277552,-0.27119032,-0.15138608
-0.44124147,0.41509324,1.219028,0.09842063,-0.78693795,1.2496836,0.3806526,0.19372661,0.6804384,0.09687501,-0.03835718,-0.26079074
-0.92712855,0.63337666,2.2865193,0.30775204,-1.5242041,2.2294984,2.3271713,2.4615183,2.6684613,1.5396758,0.30658078,-0.5094376
2.9132478,3.4710612,-0.90025604,-3.2857702,2.2995832,2.299485,0.5781256,2.827291,3.7794151,4.5875926,3.8853126,2.6831884
7.80015,5.3673983,-6.928442,-7.146772,7.972784,-0.5466434,-5.534132,-2.0009105,-1.0068752,3.4243348,5.70486,5.955382
3.71683,0.6606621,-5.484189,-2.587999,4.6613345,-3.5094166,-5.8632536,-5.439175,-4.9662147,-2.1394665,0.5566608,2.7826474
-0.44124147,-2.7363737,-2.3916042,1.4474453,0.6626024,-4.115968,-3.5123854,-5.1000037,-4.8659782,-4.6643677,-2.8237314,-1.046515
-0.54402524,-1.958739,-1.3241129,1.1799663,0.16276091,-2.6462464,-2.4215822,-2.9452696,-3.1034875,-3.185497,-1.9786333,-1.44435
-0.6281211,-0.67632383,0.27712393,0.6798967,-0.5245212,-0.36001202,-0.8794128,-0.9102423,-0.8899326,-1.3549434,-0.9610663,-0.75808454
-0.63746506,-0.64903843,0.32421914,0.66826725,-0.5495132,-0.31335416,-0.3058009,-0.25850162,-0.33027908,-0.77782303,-0.4264124,-0.54922116
-0.84303266,-0.60811025,0.7166792,0.7845625,-0.84941816,0.013250755,0.070338,-0.065639585,-0.07968798,-0.47122785,-0.31430757,-0.59895056
-0.31042576,0.005811837,0.5439968,0.19145681,-0.42455286,0.4098424,0.20198661,0.14717372,0.0957258,-0.29989526,-0.27981377,-0.51938355
-0.123546116,0.23773797,0.46550477,-0.029504126,-0.27460042,0.54981595,0.33363527,0.23362914,0.17090315,-0.34498277,-0.3056841,-0.51938355
-0.39452156,-0.17154343,0.46550477,0.31938156,-0.44954494,0.1765532,0.4558804,0.2136779,0.22102135,-0.29989526,-0.2884372,-0.4796
-0.57205725,-0.5671821,0.30852073,0.59849006,-0.4995291,-0.24336739,0.3430387,0.24027954,0.13749099,-0.29087773,-0.29706067,-0.45970824
-0.45992944,-0.37618417,0.35561594,0.43567678,-0.44954494,-0.05673601,0.3524422,0.25358036,0.15419707,-0.28186023,-0.27981377,-0.4099789
-0.41320953,-0.32161328,0.32421914,0.3891587,-0.39956078,-0.033407092,0.2772144,0.25358036,0.08737277,-0.26382524,-0.21944962,-0.38014126
-0.45058545,-0.15790072,0.57539356,0.34264058,-0.5245212,0.2931978,0.24900399,0.28018203,0.070666686,-0.2277552,-0.15908548,-0.35030362
-0.40386558,-0.18518615,0.46550477,0.3310111,-0.44954494,0.1765532,0.2772144,0.32673493,0.10407884,-0.20972021,-0.10734478,-0.30057424
-0.24501789,-0.048759017,0.35561594,0.17982727,-0.31208855,0.22321105,0.37124917,0.3466862,0.19596224,-0.18266769,-0.03835718,-0.28068247
0.05398952,0.31959426,0.27712393,-0.1690584,-0.074663796,0.4798292,0.48409083,0.32008454,0.23772743,-0.15561517,-0.003863379,-0.24089897
-0.1328901,-0.08968717,0.12013994,0.12167966,-0.137144,0.013250755,0.3900561,0.32008454,0.23772743,-0.13758014,-0.029733727,-0.21106134
-0.46927342,-0.5398967,0.16723514,0.528713,-0.3745687,-0.3366831,0.22079356,0.28683245,0.23772743,-0.11052762,-0.055604078,-0.19116959
-0.31042576,-0.19882888,0.29282233,0.27286348,-0.32458454,0.03657967,0.1455658,0.28018203,0.23772743,-0.083475105,-0.08147442,-0.14144021
-0.04879427,0.14223897,0.26142555,-0.029504126,-0.137144,0.31652674,0.09854842,0.4464424,0.22937441,-0.065440096,-0.06422753,-0.16133197
0.29693303,0.45602137,0.010251137,-0.3783898,0.18775299,0.38651347,0.070338,0.5728003,0.28784567,-0.011335064,0.013383519,0.0077479267
0.5025006,0.94715905,0.24572714,-0.71564597,0.23773713,0.96973664,0.023320638,0.59940195,0.35466993,0.24115509,0.25484014,0.3061242
0.53053254,0.81073195,0.02594954,-0.6691278,0.33770543,0.71311843,-0.108327985,0.6193532,0.371376,0.3493652,0.3928153,0.55477107
1.1378913,1.0426581,-0.72757363,-1.1459383,1.0499796,0.33985564,-0.36222175,0.70580864,0.35466993,0.3764177,0.48767325,0.7039593
1.3714908,1.5065104,-0.57058966,-1.4831946,1.1499479,0.85309196,-0.62551904,0.7656623,0.36302298,0.52069783,0.6170249,0.78352624
1.3621469,1.4382968,-0.6333833,-1.4599354,1.162444,0.7364474,-0.7195537,0.7324103,0.46325943,0.5567678,0.70325947,1.1117401
1.5957464,1.5883666,-0.85316086,-1.6576374,1.4123647,0.71311843,-0.7759745,0.8454673,0.5551428,0.6559604,0.8067408,1.1614696
1.4742748,1.6429375,-0.57058966,-1.6111193,1.2124281,0.96973664,-0.6443259,0.9119715,0.6052611,0.7010479,0.7463767,0.9923897
1.324771,1.4928677,-0.50779605,-1.4599354,1.0874677,0.8997498,-0.4750634,0.838817,0.7556158,0.6198904,0.7463767,0.8531474
1.2126433,1.3291551,-0.50779605,-1.320381,1.0124915,0.75977623,-0.4092391,0.81221527,0.8892643,0.5748028,0.6515187,0.61444634
0.820196,1.00173,-0.20952646,-0.9366068,0.6251143,0.6897895,-0.25878358,0.70580864,0.71385056,0.5026628,0.40143874,0.25639483
0.23152515,0.49694955,0.18293355,-0.35513076,0.075288646,0.54981595,-0.042503674,0.53289783,0.6052611,0.45757526,0.26346356,-0.04198145
0.08202147,0.3468797,0.27712393,-0.20394696,-0.062167767,0.5031581,0.18317966,0.33338538,0.5300837,0.3764177,0.10824147,-0.15138608
-0.1328901,0.019454554,0.23002873,0.075161576,-0.18712813,0.1765532,0.25840747,0.1870762,0.3463169,0.24115509,-0.003863379,-0.22100721
-0.46927342,-0.51261127,0.19863196,0.50545394,-0.38706478,-0.29002523,0.22079356,0.15382414,0.27949262,0.13294502,-0.11596822,-0.39008713
-0.45992944,-0.526254,0.16723514,0.50545394,-0.3620727,-0.3366831,0.16437274,0.10062081,0.17090315,0.051787477,-0.21082616,-0.58900464
-0.4225535,-0.47168317,0.15153675,0.45893583,-0.3370806,-0.29002523,0.13616233,0.060718313,0.10407884,-0.0023175564,-0.21082616,-0.58900464
-0.35714564,-0.335256,0.19863196,0.36589965,-0.31208855,-0.12672278,0.07974148,0.0075149904,0.053960618,-0.065440096,-0.21944962,-0.57905877
-0.32911372,-0.07604445,0.46550477,0.2379749,-0.39956078,0.2698689,0.051531058,-0.072289996,-0.012863682,-0.11954513,-0.20220272,-0.58900464
-0.4318975,-0.23975702,0.44980633,0.37752917,-0.46204093,0.10656645,0.12675884,-0.17204623,-0.07133494,-0.18266769,-0.24531996,-0.59895056
-0.674841,-0.7036093,0.32421914,0.71478534,-0.57450527,-0.36001202,0.03272411,-0.2851033,-0.12980619,-0.29087773,-0.34880134,-0.59895056
-0.49730536,-0.44439772,0.30852073,0.4938244,-0.44954494,-0.1500517,0.11735537,-0.23189996,-0.07968798,-0.2277552,-0.3401779,-0.57905877
-0.19829798,-0.14425802,0.16723514,0.19145681,-0.19962418,-0.010078171,0.20198661,-0.12549333,-0.012863682,-0.0744576,-0.3401779,-0.58900464
-0.123546116,0.019454554,0.23002873,0.063532054,-0.17463212,0.1765532,0.07974148,-0.078940414,0.053960618,-0.020352567,-0.29706067,-0.58900464
-0.16092205,0.12859626,0.41840953,0.04027301,-0.27460042,0.4098424,0.042127583,0.0008645753,0.12078491,0.033752464,-0.29706067,-0.58900464
-0.4318975,-0.335256,0.35561594,0.41241774,-0.42455286,-0.010078171,-0.070714094,-0.025737086,0.15419707,0.006699951,-0.2884372,-0.5691129
-0.32911372,-0.25339973,0.26142555,0.31938156,-0.32458454,-0.033407092,-0.033100203,-0.12549333,0.15419707,-0.011335064,-0.2539434,-0.52932936
-0.05813825,0.101310834,0.21433033,-0.0062450795,-0.12464795,0.24653997,0.1737762,-0.10554208,0.15419707,0.078839995,-0.2539434,-0.5094376
-0.04879427,0.019454554,0.10444154,0.017013967,-0.087159835,0.08323752,0.24900399,-0.072289996,0.15419707,0.0878575,-0.2539434,-0.4796
-0.11420214,-0.062401734,0.12013994,0.09842063,-0.12464795,0.013250755,0.23960051,-0.065639585,0.15419707,0.06982249,-0.2539434,-0.4497624
-0.123546116,0.074025415,0.27712393,0.04027301,-0.19962418,0.2698689,0.23960051,-0.019086672,0.15419707,0.078839995,-0.2539434,-0.42987064
-0.0020743664,0.19680984,0.23002873,-0.087651744,-0.087159835,0.31652674,0.23960051,-0.025737086,0.10407884,0.078839995,-0.2884372,-0.4398165
0.08202147,0.18316713,0.088743135,-0.13416983,0.012808458,0.19988212,0.23960051,-0.13214374,0.062313657,0.078839995,-0.29706067,-0.5691129
0.044645537,0.08766812,0.02594954,-0.06439269,0.012808458,0.08323752,0.22079356,-0.1587454,0.0121954335,0.051787477,-0.29706067,-0.6088964
0.13808535,0.060382698,-0.16243127,-0.09928126,0.15026487,-0.08006494,0.16437274,-0.11219248,-0.029569754,0.033752464,-0.3401779,-0.57905877
-0.08617019,-0.035116304,0.10444154,0.063532054,-0.099655874,0.03657967,0.12675884,-0.11884291,-0.08804102,0.006699951,-0.3401779,-0.54922116
-0.2917378,-0.07604445,0.40271112,0.21471584,-0.34957662,0.22321105,0.07974148,-0.072289996,-0.07968798,-0.020352567,-0.34880134,-0.51938355
-0.17026603,-0.08968717,0.16723514,0.14493872,-0.17463212,0.03657967,0.051531058,-0.09224124,0.0121954335,-0.05642259,-0.40054205,-0.6586258
-0.2356739,-0.32161328,0.02594954,0.284493,-0.17463212,-0.24336739,-0.02369673,-0.1986479,-0.07133494,-0.05642259,-0.4264124,-0.74813867
-0.14223409,-0.30797058,-0.11533607,0.22634536,-0.04967173,-0.3366831,-0.12713493,-0.19199748,-0.054628868,-0.0023175564,-0.4264124,-0.75808454
0.007269615,-0.19882888,-0.24092327,0.075161576,0.100280724,-0.3366831,-0.11773146,-0.15209498,0.0121954335,0.0878575,-0.44365928,-0.7879222
0.28758904,0.11495355,-0.36651045,-0.227206,0.33770543,-0.17338063,-0.061310623,-0.11884291,-0.054628868,0.09687501,-0.47815308,-0.8177598
0.11939739,-0.02147359,-0.22522487,-0.06439269,0.16276091,-0.17338063,-0.02369673,-0.078940414,-0.0629819,-0.029370073,-0.46952963,-0.8475974
-0.3197697,-0.335256,0.15153675,0.3310111,-0.27460042,-0.17338063,0.023320638,-0.03903792,-0.10474709,0.033752464,-0.44365928,-0.797868
-0.3478017,-0.28068513,0.26142555,0.34264058,-0.3370806,-0.05673601,0.1455658,-0.13879415,-0.13815923,0.051787477,-0.41778892,-0.75808454
-0.5253373,-0.5944676,0.19863196,0.575231,-0.42455286,-0.36001202,0.20198661,-0.2851033,-0.13815923,-0.020352567,-0.3919186,-0.7282469
-0.32911372,-0.4171123,0.088743135,0.3891587,-0.24960834,-0.29002523,0.18317966,-0.26515204,-0.14651227,-0.029370073,-0.3746717,-0.69840926
-0.0020743664,0.074025415,0.10444154,-0.029504126,-0.04967173,0.12989536,0.19258314,-0.23189996,-0.12980619,-0.101510115,-0.33155447,-0.64867985
0.21283719,0.21045254,-0.11533607,-0.227206,0.18775299,0.10656645,0.16437274,-0.22524954,-0.15486531,-0.0744576,-0.36604825,-0.64867985
0.05398952,0.18316713,0.13583834,-0.11091078,-0.024679653,0.24653997,0.13616233,-0.17869665,-0.2634548,-0.05642259,-0.46090618,-0.69840926
-0.2917378,-0.07604445,0.41840953,0.21471584,-0.3620727,0.24653997,0.107951894,-0.19199748,-0.24674872,-0.05642259,-0.48677653,-0.7282469
-0.32911372,-0.45804042,0.02594954,0.40078825,-0.2371123,-0.36001202,0.07974148,-0.29840413,-0.21333657,-0.029370073,-0.51264685,-0.7381928
-0.33845767,-0.526254,-0.03684406,0.42404723,-0.21212022,-0.45332772,0.051531058,-0.2851033,-0.18827747,-0.0023175564,-0.53851724,-0.7381928
-0.24501789,-0.18518615,0.21433033,0.2379749,-0.24960834,-0.010078171,0.042127583,-0.23855038,-0.14651227,-0.029370073,-0.55576414,-0.7381928
-0.49730536,-0.30797058,0.48120314,0.44730628,-0.5245212,0.08323752,-0.02369673,-0.21194872,-0.12980619,-0.17365018,-0.53851724,-0.7381928
-0.5066494,-0.4171123,0.37131435,0.4938244,-0.487033,-0.08006494,-0.004889783,-0.16539581,-0.07133494,-0.17365018,-0.50402343,-0.74813867
-0.17961001,-0.07604445,0.21433033,0.13330919,-0.19962418,0.08323752,0.089144945,-0.14544456,-0.029569754,-0.083475105,-0.47815308,-0.7282469
-0.20764196,-0.15790072,0.18293355,0.19145681,-0.21212022,-0.010078171,0.15496926,-0.019086672,0.0121954335,-0.03838758,-0.44365928,-0.6785176
-0.17961001,-0.19882888,0.07304473,0.20308633,-0.14964002,-0.10339387,0.20198661,-0.058989167,0.070666686,0.033752464,-0.4264124,-0.61884224
-0.22632992,-0.10332987,0.24572714,0.17982727,-0.24960834,0.08323752,0.19258314,-0.17204623,0.0957258,0.19606757,-0.34880134,-0.57905877
-0.2917378,0.31959426,0.85796475,0.04027301,-0.53701717,0.8997498,0.1455658,-0.11219248,0.17925619,0.28624263,-0.23669653,-0.5392753
-0.26370582,0.6470194,1.1876311,-0.1225403,-0.64948153,1.436315,0.013917164,-0.10554208,0.2544335,0.2321376,-0.14183858,-0.4895459
0.08202147,0.9744445,0.983552,-0.471426,-0.3370806,1.5529596,-0.061310623,-0.05233875,0.35466993,0.35838267,-0.12459167,-0.52932936
0.3529969,1.3018696,0.90505993,-0.7854231,-0.12464795,1.7862487,-0.22116968,-0.058989167,0.36302298,0.44855776,-0.11596822,-0.5392753
0.23152515,0.9062309,0.6695839,-0.5295736,-0.11215191,1.2730125,-0.3152044,-0.1587454,0.23772743,0.3493652,-0.13321511,-0.5392753
0.4651247,0.91987365,0.27712393,-0.6807574,0.18775299,0.99306554,-0.2493801,-0.1986479,0.17090315,0.3493652,-0.17633238,-0.5392753
0.52118856,0.71523297,-0.068240866,-0.6342393,0.37519354,0.54981595,-0.20236273,-0.17204623,0.045607578,0.20508507,-0.27981377,-0.52932936
0.22218117,0.3605224,0.041647945,-0.28535363,0.1252728,0.31652674,-0.108327985,-0.17204623,0.037254542,0.11491001,-0.3401779,-0.57905877
0.1661173,0.060382698,-0.20952646,-0.13416983,0.20024902,-0.10339387,-0.11773146,-0.19199748,-0.07968798,-0.11052762,-0.41778892,-0.6785176
-0.030106308,-0.4171123,-0.42930406,0.19145681,0.15026487,-0.663288,-0.02369673,-0.15209498,-0.08804102,-0.24579021,-0.47815308,-0.797868
-0.04879427,-0.4034696,-0.38220885,0.20308633,0.1252728,-0.61663014,-0.070714094,-0.21194872,-0.19663051,-0.20972021,-0.43503582,-0.8177598
-0.17026603,-0.4989686,-0.28801847,0.31938156,0.00031242077,-0.6399591,0.042127583,-0.03903792,-0.20498353,-0.18266769,-0.69373935,-1.0166773
-0.5066494,-0.062401734,0.7794728,0.3310111,-0.64948153,0.52648705,0.1737762,0.04076707,0.30455175,0.24115509,-0.50402343,-0.92716444
-0.7776248,-0.062401734,1.219028,0.50545394,-1.0118666,0.85309196,1.8758048,1.9095337,2.0503366,1.3142382,-0.4264124,-1.4741876
1.5116506,2.297788,0.088743135,-1.913487,0.96250737,2.0195382,1.9980499,3.6918452,4.405893,4.9392757,2.8936157,1.0023355
6.136921,5.6538954,-3.8044603,-6.21641,5.6110334,1.9962091,-3.2020707,0.113921635,1.1398555,5.5434484,6.8690257,6.293542
4.146653,2.666141,-3.8986506,-3.7160625,4.323941,-0.61663014,-5.054555,-4.4349627,-3.9722033,-0.020352567,2.5400543,4.5530133
-0.51599336,-1.3448168,-0.68047845,0.90085775,-0.074663796,-1.6664318,-3.1550534,-5.113305,-4.673858,-3.6003022,-2.4701698,-0.41992474
-0.8336887,-1.617671,-0.46070087,1.2032254,-0.3745687,-1.7130896,-2.2523198,-3.503904,-3.6213756,-3.1584446,-2.5995214,-1.8024015
-0.88975257,-0.8946073,0.46550477,0.9241168,-0.77444184,-0.40666986,-1.001658,-1.561983,-1.7502954,-1.6615387,-1.7802941,-1.5239171
-0.95516044,-0.7991083,0.68528235,0.93574625,-0.91189826,-0.17338063,-0.16474883,-0.41146117,-0.6393415,-0.6966655,-1.107665,-1.1758113
-0.69352895,-0.64903843,0.41840953,0.70315576,-0.6244894,-0.24336739,0.1455658,-0.10554208,-0.33863214,-0.34498277,-0.9955601,-1.2553782
-0.5346813,-0.44439772,0.38701272,0.5170834,-0.5120251,-0.08006494,0.19258314,0.08731997,-0.07133494,-0.2007027,-0.8834552,-1.1758113
-0.3758336,-0.4034696,0.16723514,0.41241774,-0.31208855,-0.22003846,0.25840747,0.2136779,-0.012863682,-0.2277552,-0.8662083,-1.1559197
-0.4879614,-0.44439772,0.30852073,0.4938244,-0.44954494,-0.12672278,0.30542487,0.1804258,0.070666686,-0.12856264,-0.81446767,-1.1459737
-0.6094332,-0.7445374,0.16723514,0.6915263,-0.46204093,-0.49998552,0.26781094,0.17377539,0.0038423953,-0.11052762,-0.74548006,-1.1061902
-0.45058545,-0.48532584,0.19863196,0.48219487,-0.3745687,-0.2666963,0.29602137,0.14717372,0.0038423953,-0.05642259,-0.7368566,-1.0564609
-0.2823938,-0.28068513,0.13583834,0.29612252,-0.2371123,-0.12672278,0.2772144,0.13387288,-0.029569754,0.006699951,-0.71960974,-0.9868397
-0.36648965,-0.21247159,0.35561594,0.31938156,-0.38706478,0.08323752,0.28661788,0.12057205,-0.0629819,0.015717458,-0.7368566,-0.95700204
-0.3478017,-0.062401734,0.51259995,0.2379749,-0.43704885,0.31652674,0.23019704,0.1405233,-0.021216717,-0.0023175564,-0.71960974,-0.877435
-0.2356739,0.060382698,0.46550477,0.11005014,-0.3370806,0.38651347,0.1737762,0.12057205,0.07901973,-0.020352567,-0.72823316,-0.83765155
-0.17026603,0.18316713,0.49690148,0.028643489,-0.31208855,0.52648705,0.13616233,0.12057205,0.070666686,-0.03838758,-0.72823316,-0.7879222
-0.30108178,-0.048759017,0.46550477,0.20308633,-0.38706478,0.31652674,0.070338,0.113921635,0.028901502,-0.0744576,-0.68511593,-0.7381928
-0.3758336,-0.10332987,0.49690148,0.27286348,-0.44954494,0.2698689,0.03272411,0.14717372,0.020548465,0.015717458,-0.6161283,-0.6884634
0.007269615,0.333237,0.37131435,-0.14579935,-0.14964002,0.54981595,-0.02369673,0.2602308,-0.021216717,0.09687501,-0.5471407,-0.64867985
0.18480524,0.46966413,0.21433033,-0.3202422,0.037800536,0.54981595,-0.09892451,0.28018203,-0.0045106434,0.0878575,-0.47815308,-0.59895056
0.26890108,0.38780782,-0.0054472582,-0.33187172,0.17525695,0.31652674,-0.1741523,0.3134341,0.070666686,0.06982249,-0.41778892,-0.52932936
0.47446865,0.63337666,-0.05254246,-0.5644621,0.33770543,0.5031581,-0.2493801,0.34003577,0.15419707,0.16901505,-0.19357926,-0.18122372
0.26890108,0.5515204,0.18293355,-0.41327834,0.100280724,0.6198027,-0.3058009,0.3533366,0.17925619,0.3854352,0.039253864,0.06742319
0.34365293,0.6060912,0.10444154,-0.471426,0.18775299,0.59647375,-0.59730864,0.37328786,0.12913795,0.43954024,0.14273524,0.11715258
0.88560385,1.3155124,0.02594954,-1.1110497,0.57513016,1.1330391,-0.7665711,0.3932391,0.12078491,0.61087286,0.27208698,0.36579946
1.1565793,1.6702229,-0.021145662,-1.4366763,0.7750668,1.4129862,-0.7383607,0.41984072,0.070666686,0.5387328,0.29795736,0.55477107
1.1846113,1.6292948,-0.13103448,-1.4250468,0.837547,1.2963415,-0.8512023,0.47304407,0.08737277,0.5116803,0.36694494,0.66417575
1.1472353,1.574724,-0.11533607,-1.3785287,0.8125549,1.2496836,-0.80418503,0.4996457,0.28784567,0.809258,0.46180287,0.6045005
0.99773157,1.4792249,0.041647945,-1.250604,0.6501064,1.2963415,-0.70074683,0.5395482,0.371376,0.85434556,0.43593255,0.52493346
0.89494777,1.520153,0.26142555,-1.204086,0.50015396,1.4829729,-0.5408877,0.6193532,0.5802019,0.93550307,0.43593255,0.4254747
0.62397236,1.1517998,0.27712393,-0.8784592,0.3002173,1.1796969,-0.2493801,0.47304407,0.66373235,0.809258,0.20309941,0.04753143
0.20349321,0.4833068,0.21433033,-0.33187172,0.05029657,0.54981595,-0.108327985,0.3067837,0.5634959,0.6198904,-0.18495582,-0.33041185
0.22218117,0.45602137,0.15153675,-0.34350124,0.087784685,0.5031581,-0.004889783,0.25358036,0.5300837,0.5928378,-0.2884372,-0.5392753
0.315621,0.5515204,0.10444154,-0.4249079,0.17525695,0.54981595,0.09854842,0.16047455,0.46325943,0.49364528,-0.3056841,-0.6287882
0.19414923,0.30595154,0.02594954,-0.25046507,0.112776764,0.2698689,0.089144945,0.06736873,0.40478817,0.43052274,-0.43503582,-0.77797633
0.11939739,0.19680984,0.010251137,-0.15742888,0.075288646,0.1765532,0.13616233,-0.019086672,0.32125783,0.35838267,-0.47815308,-0.82770574
-0.30108178,-0.18518615,0.29282233,0.27286348,-0.31208855,0.059908595,0.13616233,-0.11884291,0.2544335,0.2772251,-0.5471407,-0.877435
-0.2823938,-0.035116304,0.41840953,0.19145681,-0.34957662,0.2698689,0.19258314,-0.18534707,0.17090315,0.19606757,-0.59888136,-0.8475974
-0.31042576,-0.02147359,0.49690148,0.20308633,-0.41205677,0.36318457,0.3430387,-0.23189996,0.12078491,0.0878575,-0.6506221,-0.8475974
-0.80565673,-0.717252,0.51259995,0.8078215,-0.7369538,-0.22003846,0.3430387,-0.30505452,0.17925619,-0.065440096,-0.74548006,-0.9868397
-0.8150007,-0.64903843,0.62248874,0.7845625,-0.78693795,-0.10339387,0.30542487,-0.27845287,0.19596224,0.09687501,-0.67649245,-0.91721857
-0.82434475,-0.5398967,0.7794728,0.73804444,-0.8619141,0.10656645,0.28661788,-0.23189996,0.19596224,0.25017262,-0.6161283,-0.86748916
-0.3851776,-0.17154343,0.44980633,0.30775204,-0.43704885,0.1765532,0.2772144,-0.21194872,0.19596224,0.17803256,-0.57301104,-0.8177598
-0.19829798,-0.02147359,0.30852073,0.13330919,-0.24960834,0.19988212,0.23019704,-0.17869665,0.19596224,0.17803256,-0.48677653,-0.74813867
-0.14223409,-0.02147359,0.21433033,0.09842063,-0.18712813,0.12989536,0.1737762,-0.16539581,0.19596224,0.14196253,-0.48677653,-0.75808454
0.025957577,0.101310834,0.088743135,-0.06439269,-0.024679653,0.15322427,0.1455658,-0.13214374,0.1876092,0.11491001,-0.5471407,-0.82770574
-0.188954,-0.29432786,-0.021145662,0.2379749,-0.11215191,-0.2666963,0.09854842,-0.11219248,0.13749099,0.17803256,-0.55576414,-0.877435
0.22218117,0.19680984,-0.14673287,-0.227206,0.20024902,0.059908595,0.051531058,-0.085590824,0.0957258,0.2321376,-0.68511593,-0.8475974
0.11939739,0.44237867,0.30852073,-0.2620946,-0.04967173,0.59647375,0.013917164,-0.078940414,0.045607578,0.19606757,-0.71960974,-0.8177598
-0.3758336,-0.1306153,0.49690148,0.284493,-0.44954494,0.24653997,-0.004889783,-0.078940414,0.0038423953,0.16901505,-0.6161283,-0.7879222
-0.2356739,-0.062401734,0.30852073,0.16819777,-0.27460042,0.1765532,0.013917164,-0.078940414,-0.054628868,0.14196253,-0.590258,-0.7680304
-0.10485816,0.060382698,0.24572714,0.04027301,-0.17463212,0.22321105,-0.004889783,-0.072289996,-0.0045106434,0.12392752,-0.51264685,-0.7282469
-0.067482226,-0.02147359,0.10444154,0.051902536,-0.087159835,0.059908595,-0.042503674,-0.09889166,0.0957258,0.1058925,-0.47815308,-0.7680304
-0.1328901,-0.19882888,-0.0054472582,0.16819777,-0.074663796,-0.17338063,-0.042503674,-0.21194872,0.070666686,0.060804985,-0.59888136,-0.92716444
-0.20764196,-0.335256,-0.03684406,0.27286348,-0.12464795,-0.31335416,-0.061310623,-0.21859913,0.070666686,0.033752464,-0.65924555,-0.95700204
-0.2917378,-0.30797058,0.13583834,0.30775204,-0.24960834,-0.17338063,-0.09892451,-0.2052983,0.053960618,-0.0023175564,-0.65924555,-0.93711036
-0.2917378,-0.18518615,0.27712393,0.26123393,-0.2995925,0.03657967,-0.089521036,-0.18534707,0.020548465,-0.029370073,-0.7023628,-0.93711036
-0.32911372,-0.25339973,0.26142555,0.30775204,-0.32458454,-0.010078171,-0.12713493,-0.17204623,0.028901502,-0.065440096,-0.71960974,-0.93711036
-0.46927342,-0.4989686,0.21433033,0.50545394,-0.39956078,-0.24336739,-0.1741523,-0.31170496,-0.0045106434,-0.09249262,-0.7368566,-0.93711036
-0.3758336,-0.38982686,0.18293355,0.3891587,-0.32458454,-0.19670953,-0.20236273,-0.35160744,-0.029569754,-0.101510115,-0.76272696,-0.93711036
-0.3758336,-0.44439772,0.12013994,0.41241774,-0.28709647,-0.29002523,-0.25878358,-0.31835535,-0.0629819,-0.13758014,-0.7713504,-0.93711036
-0.45058545,-0.5671821,0.10444154,0.528713,-0.3370806,-0.40666986,-0.2775905,-0.31170496,-0.08804102,-0.14659765,-0.7713504,-0.93711036
-0.32911372,-0.44439772,0.041647945,0.40078825,-0.2371123,-0.3366831,-0.2775905,-0.2851033,-0.13815923,-0.17365018,-0.7713504,-0.93711036
-0.3197697,-0.45804042,-0.0054472582,0.3891587,-0.21212022,-0.38334095,-0.2775905,-0.27845287,-0.12980619,-0.14659765,-0.77997386,-0.93711036
-0.3851776,-0.38982686,0.19863196,0.40078825,-0.3370806,-0.17338063,-0.2775905,-0.24520078,-0.096394055,-0.083475105,-0.74548006,-0.9470562
-0.22632992,-0.21247159,0.13583834,0.22634536,-0.19962418,-0.08006494,-0.2775905,-0.24520078,-0.08804102,-0.011335064,-0.667869,-0.90727264
-0.11420214,-0.1306153,0.041647945,0.12167966,-0.099655874,-0.08006494,-0.2775905,-0.23189996,-0.10474709,0.033752464,-0.59888136,-0.7879222
-0.039450288,0.333237,0.44980633,-0.1225403,-0.21212022,0.59647375,-0.2493801,-0.21194872,-0.0045106434,0.1058925,-0.52127033,-0.6586258
0.1661173,0.8516601,0.7009808,-0.471426,-0.17463212,1.2496836,-0.22116968,-0.2052983,0.17090315,0.35838267,-0.45228273,-0.57905877
0.19414923,0.9608018,0.7794728,-0.5412031,-0.17463212,1.3896573,-0.2493801,-0.23189996,0.14584403,0.41248772,-0.3574248,-0.51938355
0.23152515,0.94715905,0.7166792,-0.55283266,-0.137144,1.3429993,-0.3058009,-0.25850162,0.20431527,0.3764177,-0.27119032,-0.45970824
0.34365293,1.0290154,0.6067904,-0.65749836,-0.012183619,1.3196704,-0.49387038,-0.29175368,0.32125783,0.40347022,-0.21082616,-0.4398165
0.63331634,1.3427979,0.48120314,-0.9714954,0.2252411,1.5063018,-0.70074683,-0.31835535,0.19596224,0.31329516,-0.21082616,-0.39008713
0.26890108,0.7288757,0.40271112,-0.4830555,0.012808458,0.9230788,-0.68193984,-0.29840413,0.14584403,0.2772251,-0.31430757,-0.400033
-0.067482226,0.12859626,0.26142555,-0.017874602,-0.14964002,0.2931978,-0.62551904,-0.3316562,0.045607578,0.19606757,-0.27981377,-0.320466
0.11939739,0.30595154,0.13583834,-0.20394696,0.025304496,0.36318457,-0.49387038,-0.27845287,0.0038423953,0.15999754,-0.33155447,-0.3701954
-0.2917378,-0.36254144,0.088743135,0.3310111,-0.22461626,-0.24336739,-0.49387038,-0.39816034,-0.16321835,0.006699951,-0.52127033,-0.6287882
-0.6281211,-1.0583199,-0.14673287,0.8427101,-0.3620727,-1.0132217,-0.39043218,-0.38485953,-0.34698516,-0.29989526,-0.79722077,-0.797868
-0.5814012,-0.92189264,-0.08393927,0.7613034,-0.3620727,-0.8265905,-0.3810287,-0.39150992,-0.19663051,-0.21873769,-0.72823316,-0.6884634
-0.2730498,-0.7036093,-0.35081205,0.47056535,-0.04967173,-0.8499193,-0.29639745,-0.3383066,-0.23004264,-0.2277552,-0.8662083,-0.69840926
-0.40386558,-0.36254144,0.26142555,0.40078825,-0.3745687,-0.10339387,-0.19295925,-0.27845287,0.037254542,-0.083475105,-0.8230911,-0.7680304
-0.99253637,-0.5944676,0.983552,0.8659692,-1.0493547,0.22321105,0.7097742,0.55284905,1.01456,0.25017262,-0.7368566,-1.3349453
-0.17961001,0.428736,0.79517114,-0.076022215,-0.43704885,0.9464077,2.2707505,3.0800068,3.7794151,3.0185468,0.7377533,-0.74813867
4.333533,4.5488353,-2.0462394,-4.6347947,3.7116356,2.3694718,-1.4248142,1.6435173,3.0694072,5.9943237,5.851459,4.5530133
5.8752894,4.180482,-5.0760307,-5.437232,5.9484262,-0.19670953,-5.571746,-3.4240994,-2.7276006,2.143849,5.066725,6.353217
1.0724834,-0.78546554,-2.7055721,-0.3202422,1.7872458,-2.6695755,-4.28347,-5.472427,-5.250218,-3.2666547,-1.2370167,1.4001706
-1.1326962,-2.4498765,-0.9159545,1.7498128,-0.38706478,-2.7862198,-3.0328083,-4.4881654,-4.4984446,-4.1593876,-2.9099658,-1.4045664
-0.92712855,-1.5085294,-0.17812967,1.2148548,-0.5495132,-1.4098135,-1.9043914,-2.4265373,-2.5855992,-2.545254,-2.0648677,-1.4145123
-1.123352,-0.97646356,0.7637744,1.1218187,-1.0493547,-0.2666963,-0.7383607,-0.936844,-0.9316977,-1.1565583,-1.3491215,-1.1459737
-0.8804086,-0.9628209,0.38701272,0.95900536,-0.7369538,-0.5466434,-0.46565998,-0.45801413,-0.58922327,-0.91308564,-1.0473008,-1.0862985
-0.7589368,-0.75818014,0.40271112,0.79619205,-0.6744736,-0.3366831,-0.23997663,-0.25850162,-0.2801609,-0.6425604,-0.9351959,-1.0862985
-0.69352895,-0.77182287,0.29282233,0.74967396,-0.57450527,-0.42999876,-0.14594188,-0.18534707,-0.30521998,-0.51631534,-0.7713504,-0.9967856
-0.7122169,-0.78546554,0.29282233,0.7845625,-0.5870013,-0.45332772,-0.05190715,-0.16539581,-0.25510177,-0.48024532,-0.7541035,-0.9868397
-0.684185,-0.812751,0.19863196,0.77293295,-0.53701717,-0.5466434,-0.09892451,-0.15209498,-0.22168961,-0.4171228,-0.71098626,-0.877435
-0.7122169,-0.92189264,0.13583834,0.8310806,-0.5245212,-0.68661696,-0.08011756,-0.12549333,-0.20498353,-0.4081053,-0.72823316,-0.83765155
-0.5346813,-0.7036093,0.088743135,0.6333787,-0.39956078,-0.5233145,-0.089521036,-0.10554208,-0.15486531,-0.33596525,-0.67649245,-0.75808454
-0.46927342,-0.64903843,0.02594954,0.56360155,-0.32458454,-0.5233145,-0.089521036,-0.13214374,-0.14651227,-0.33596525,-0.69373935,-0.69840926
-0.40386558,-0.60811025,-0.021145662,0.50545394,-0.2621044,-0.5233145,-0.089521036,-0.14544456,-0.08804102,-0.32694775,-0.667869,-0.64867985
-0.33845767,-0.5398967,-0.05254246,0.43567678,-0.19962418,-0.49998552,-0.2493801,-0.14544456,-0.08804102,-0.32694775,-0.6247518,-0.57905877
-0.3197697,-0.5535394,-0.09963767,0.43567678,-0.16213608,-0.5466434,-0.28699398,-0.14544456,-0.03792279,-0.32694775,-0.60750484,-0.5094376
-0.20764196,-0.25339973,0.057346348,0.2379749,-0.14964002,-0.17338063,-0.26818702,-0.14544456,-0.012863682,-0.32694775,-0.56438756,-0.4497624
-0.4879614,-0.4034696,0.35561594,0.47056535,-0.46204093,-0.08006494,-0.28699398,-0.14544456,-0.046275828,-0.32694775,-0.53851724,-0.3701954
-0.44124147,-0.5535394,0.10444154,0.50545394,-0.3370806,-0.38334095,-0.26818702,-0.10554208,-0.096394055,-0.29087773,-0.49539998,-0.34035772
-0.17961001,-0.37618417,-0.14673287,0.27286348,-0.062167767,-0.42999876,-0.29639745,-0.065639585,-0.14651227,-0.2367727,-0.48677653,-0.23095308
0.110053405,-0.10332987,-0.28801847,-0.017874602,0.18775299,-0.29002523,-0.36222175,-0.025737086,-0.17157139,-0.19168517,-0.43503582,-0.15138608
0.4931566,0.38780782,-0.38220885,-0.471426,0.48765787,0.03657967,-0.39983565,0.034116652,-0.11310013,-0.13758014,-0.27981377,-0.012143824
0.6987242,0.57880586,-0.50779605,-0.6691278,0.6626024,0.10656645,-0.5690982,0.06736873,-0.054628868,-0.083475105,-0.098721325,0.1867737
0.7547881,0.6060912,-0.5862881,-0.72727543,0.7375787,0.08323752,-0.83239543,0.12057205,-0.0045106434,-0.047405083,0.06512421,0.3061242
0.9136358,0.8653028,-0.53919286,-0.9366068,0.82505095,0.33985564,-0.96404403,0.27353165,0.053960618,0.0878575,0.24621665,0.66417575
1.4182109,1.574724,-0.57058966,-1.5529717,1.17494,0.9230788,-1.0768857,0.35998702,0.0957258,0.33133018,0.43593255,0.8531474
1.2500192,1.7111511,-0.13103448,-1.5064535,0.88753116,1.3663282,-1.2743587,0.38658866,0.15419707,0.41248772,0.5307905,0.9625521
0.87625986,1.3155124,0.041647945,-1.1110497,0.57513016,1.1563679,-1.3213761,0.41984072,0.19596224,0.36740017,0.60840154,1.042119
0.90429175,1.1108717,-0.22522487,-1.029643,0.68759453,0.78310525,-1.1427101,0.37993827,0.27949262,0.3493652,0.57390773,0.86309326
0.8669158,0.9335164,-0.38220885,-0.9366068,0.72508264,0.52648705,-0.88881624,0.3001333,0.40478817,0.31329516,0.46180287,0.69401336
0.8575719,0.8789455,-0.41360566,-0.9017183,0.7375787,0.43317133,-0.6725363,0.2203283,0.371376,0.30427763,0.22896975,0.4254747
0.77347606,0.8243747,-0.35081205,-0.8319411,0.6626024,0.43317133,-0.5408877,0.15382414,0.27949262,0.25017262,-0.055604078,0.17682782
0.56790847,0.5651631,-0.28801847,-0.5877212,0.50015396,0.2698689,-0.46565998,0.08731997,0.22102135,0.13294502,-0.15046202,0.0077479267
0.21283719,0.074025415,-0.27232006,-0.1690584,0.25023317,-0.12672278,-0.39043218,0.014165406,0.12913795,0.033752464,-0.21944962,-0.13149433
-0.1328901,-0.335256,-0.16243127,0.22634536,-0.024679653,-0.40666986,-0.3152044,-0.065639585,0.07901973,-0.11954513,-0.33155447,-0.22100721
-0.188954,-0.10332987,0.19863196,0.16819777,-0.21212022,0.059908595,-0.25878358,-0.13879415,0.037254542,-0.29087773,-0.36604825,-0.39008713
