I,II,III,aVR,aVL,aVF,V1,V2,V3,V4,V5,V6
-0.97135764,0.06759164,0.5782632,0.23639242,-1.2004756,0.2906603,-1.1490455,1.1443546,0.48516437,1.0470206,0.9337999,-1.6461879
-0.8166566,0.083460085,0.52107173,0.1758178,-1.0486246,0.27694556,-1.1332827,1.1525149,0.49365294,1.0470206,0.9368693,-1.6368119
-0.7960297,0.11122986,0.5470679,0.15158795,-1.0719863,0.304375,-1.1112145,1.1960372,0.5276072,1.0544957,0.9460777,-1.6227479
-0.91979057,0.13899963,0.64585316,0.16370288,-1.247199,0.35923383,-1.0922991,1.2858018,0.6506915,1.0694456,0.96142507,-1.6039958
-0.60007507,0.1628023,0.51587254,0.048611123,-0.9201353,0.3180897,-1.0197898,1.4680512,0.8968601,1.066954,0.967564,-1.5852439
-0.4866276,0.17867073,0.47947794,0.0062088952,-0.8266885,0.3135181,-0.92205983,1.63942,1.1090745,1.1018374,0.9859807,-1.5711797
-0.4763142,0.27784848,0.6042594,-0.0725381,-0.95517784,0.42323574,-0.90629697,1.8624716,1.4146631,1.1890459,1.0381614,-1.5242997
-0.32161313,0.4365329,0.73424,-0.24214698,-1.013582,0.57409745,-0.88422894,2.012079,1.7032745,1.2837296,1.1548009,-1.4211638
-0.2700461,0.71423066,1.0721897,-0.47233054,-1.3640075,0.88496405,-0.87477124,2.0175195,1.9451989,1.4282466,1.3481768,-1.2523955
-0.09471821,0.9919284,1.3477489,-0.7328013,-1.5742629,1.1638296,-0.846398,1.9957583,1.9579318,1.5627968,1.4801636,-1.1680114
0.14249012,1.1863167,1.4829288,-0.9508699,-1.5859437,1.3375492,-0.846398,1.9168743,1.8857789,1.6051553,1.6121502,-1.1820755
0.15280353,1.2537577,1.5661163,-0.9993296,-1.6793905,1.4061226,-0.9472805,1.7482256,1.7924045,1.577747,1.658192,-1.1680114
0.12186332,1.1942511,1.5037256,-0.9508699,-1.6209863,1.3466922,-0.9851115,1.5088532,1.5377475,1.5603051,1.6060112,-1.1539475
0.059982877,1.1268102,1.4465342,-0.87818044,-1.5976245,1.2826903,-1.0008743,1.2477199,1.2533803,1.5229301,1.5476915,-1.1492594
-0.19785225,0.95622444,1.3529481,-0.6722267,-1.6443479,1.1455432,-1.0355527,0.9974671,0.909593,1.3933632,1.3880798,-1.1680114
-0.4866276,0.74200046,1.2177681,-0.42387083,-1.6443479,0.96268064,-1.0387052,0.78529614,0.60824865,1.241371,1.2376764,-1.2711476
-0.5897617,0.5555463,1.0253967,-0.2542619,-1.480816,0.7706748,-1.0418578,0.6411288,0.3917901,1.1142957,1.1241064,-1.3695956
-0.6310153,0.4365329,0.8954161,-0.15128508,-1.3640075,0.642671,-1.0418578,0.5268829,0.2220186,1.0221039,1.0443004,-1.4211638
-0.71352255,0.3928947,0.8798184,-0.090710476,-1.39905,0.61067003,-1.0418578,0.44799885,0.10317858,0.9647954,1.0043975,-1.4352278
-0.78571635,0.34925646,0.848623,-0.03619333,-1.39905,0.57409745,-1.0418578,0.4044766,0.052247155,0.92492867,0.9706334,-1.4305396
-0.8579102,0.30561826,0.82782614,0.018323816,-1.4224118,0.53752494,-1.0355527,0.3772752,0.03527001,0.89253694,0.9491472,-1.4492917
-0.87853694,0.27784848,0.8070292,0.04255366,-1.39905,0.5146671,-1.0260949,0.34463355,0.009804293,0.8701119,0.9184527,-1.4586678
-0.8888504,0.25404584,0.7810331,0.06678351,-1.3873693,0.4872377,-1.0260949,0.32015228,-0.015661426,0.8526702,0.89389694,-1.4539798
-0.89916384,0.2381774,0.76543534,0.07889842,-1.3756883,0.473523,-1.0166372,0.31743217,-0.03688286,0.8352285,0.8816191,-1.4352278
-0.9816711,0.20644051,0.76543534,0.12735811,-1.4224118,0.4552367,-1.0071795,0.31471202,-0.028394284,0.8202784,0.8632024,-1.4352278
-0.9919844,0.19453919,0.75503695,0.13947302,-1.4107308,0.44152203,-1.010332,0.3065516,-0.015661426,0.80034506,0.85092455,-1.4305396
-1.0229247,0.16676942,0.73424,0.16976033,-1.4107308,0.41866416,-0.9977218,0.3011113,-0.007172853,0.80034506,0.83557725,-1.4117877
-1.0435514,0.1628023,0.73943925,0.18187526,-1.4224118,0.41866416,-0.9725011,0.30927175,0.009804293,0.8152951,0.8232994,-1.4164757
-1.0641782,0.17073652,0.76023614,0.18187526,-1.4691352,0.43237886,-0.95673823,0.32015228,0.02253715,0.8252618,0.8478551,-1.3977237
-1.2188793,0.15883519,0.81742764,0.23639242,-1.6093055,0.45066515,-0.92836505,0.333753,0.026781438,0.83772016,0.8693413,-1.3555317
-0.8682236,0.34925646,0.8954161,-0.011963488,-1.5041778,0.5923837,-0.91890734,0.3419134,0.09893431,0.8501785,0.90003586,-1.3227156
-0.651642,0.5079409,0.99420136,-0.19974476,-1.492497,0.7295307,-0.88422894,0.333753,0.12440003,0.86263686,0.9368693,-1.2805237
-0.6413287,0.6626583,1.1969712,-0.32089397,-1.7144332,0.90782183,-0.8999918,0.29567105,0.039514296,0.8501785,0.9307304,-1.2523955
-0.46600077,0.7816716,1.2593619,-0.4602156,-1.6793905,1.0038247,-1.0450104,0.19502588,0.01404858,0.83772016,0.9245915,-1.2664595
-0.44537398,0.73009914,1.1813735,-0.4299283,-1.5859437,0.93982285,-1.0796888,0.11342168,-0.015661426,0.8202784,0.91538316,-1.2711476
-0.32161313,0.6824938,1.0565921,-0.4299283,-1.3756883,0.8575346,-1.0828414,0.08894043,-0.045371428,0.81280345,0.9061748,-1.2852116
-0.5897617,0.38099337,0.79663074,-0.12099779,-1.2355182,0.5695259,-1.0891465,0.07261959,-0.066592865,0.7604783,0.90310526,-1.2945876
-1.053865,0.14296675,0.71864235,0.20004764,-1.39905,0.3958063,-1.1049094,-0.0062644603,-0.10903572,0.6907115,0.8662718,-1.2992755
-1.1982526,0.075525865,0.7082439,0.29090956,-1.480816,0.35466224,-1.1017568,-0.060667254,-0.117524296,0.67576146,0.8171605,-1.3274037
-1.2601329,-0.023651903,0.6042594,0.38782892,-1.39905,0.24951616,-1.0922991,-0.08786865,-0.17694432,0.6433697,0.76497966,-1.3414676
-1.033238,-0.035553236,0.46907946,0.32725433,-1.1070288,0.18551423,-1.0828414,-0.10146935,-0.15996715,0.65084475,0.7619102,-1.3555317
-1.0744916,-0.118862554,0.38589182,0.41205877,-1.0369438,0.09865446,-1.063926,-0.120510325,-0.24485289,0.596028,0.72507674,-1.3836596
-1.2498195,-0.059355896,0.5522671,0.41205877,-1.328965,0.20837206,-1.0733837,-0.15315199,-0.19816573,0.62343633,0.73428506,-1.3789717
-0.9094772,-0.30134964,0.06353977,0.49686322,-0.5813907,-0.14821018,-1.0229424,-0.13683116,-0.23212004,0.5038361,0.56546485,-1.4539798
-0.9507308,-0.6861594,-0.4199883,0.80579364,-0.06743336,-0.5779375,-1.0418578,0.17326476,0.0692243,0.4390526,0.4150614,-1.5477397
0.45189226,0.92845464,0.9890021,-0.8418357,-0.86173105,0.9672522,-0.9851115,0.79073644,1.9409547,1.8642893,1.845429,-0.33823463
4.030644,4.475052,3.8329792,-4.5974617,-2.029816,4.2633524,-2.0412252,-0.82230633,3.5665164,5.013763,5.092916,2.6386485
3.7006147,5.470796,5.3043604,-5.2637825,-3.863709,5.4839606,-3.5513105,-3.8253403,1.3594873,5.404955,5.762058,3.3512254
-0.42474714,2.2415683,3.1518803,-1.5869032,-3.781943,2.6724467,-3.308562,-4.064713,-2.986662,1.4257549,2.3181255,0.35090208
-2.1677127,-0.21407321,0.81222844,0.79973626,-2.1349437,0.2312299,-2.3060417,-2.3891068,-3.2073646,-0.44798276,0.39664462,-1.5055478
-2.0026982,-0.30531678,0.60945857,0.81790864,-1.8078798,0.08951132,-1.4706085,-1.0127162,-1.2931916,0.1500186,0.6207151,-1.4352278
-1.7036095,-0.26167855,0.52107173,0.6967594,-1.550901,0.07579663,-1.0418578,-0.35444233,-0.6862587,0.2247688,0.626854,-1.4586678
-1.4354609,-0.21407321,0.44828254,0.58166766,-1.3172841,0.07122506,-0.9252125,-0.14771172,-0.2660743,0.37426916,0.74349344,-1.4070996
-1.4045208,-0.18233633,0.46907946,0.55138034,-1.3172841,0.09865446,-0.81487215,-0.033465855,-0.2406086,0.37426916,0.7465629,-1.3883477
-1.2910732,-0.16646789,0.43268487,0.5029207,-1.2238374,0.09408289,-0.7991093,0.0018959594,-0.13874574,0.4041692,0.7833965,-1.3649076
-1.2188793,-0.12679677,0.44828254,0.454461,-1.1887947,0.1215123,-0.76127833,0.037257776,-0.07508144,0.40167752,0.7987438,-1.3367796
-1.1054319,-0.11489545,0.40668872,0.41205877,-1.0836672,0.112369165,-0.74551547,0.053578608,-0.03688286,0.39171085,0.8079521,-1.3461556
-1.1054319,-0.079191454,0.44828254,0.38177145,-1.1303905,0.1489417,-0.7171423,0.09982099,0.09893431,0.40915257,0.83557725,-1.3274037
-1.0435514,-0.063323006,0.44308332,0.35148418,-1.0836672,0.15351327,-0.68876904,0.16510433,0.15835431,0.38921916,0.8263689,-1.3180276
-1.0126113,-0.035553236,0.4638802,0.32119685,-1.0836672,0.18094265,-0.64778554,0.23582798,0.2602172,0.42410257,0.8570635,-1.3180276
-0.89916384,-0.00778346,0.44828254,0.2666797,-1.013582,0.1900858,-0.5941917,0.35007384,0.3493472,0.42908594,0.8478551,-1.3039637
-0.8682236,0.012052093,0.4534818,0.24244986,-1.0019013,0.2038005,-0.50907207,0.52416277,0.54458433,0.46147767,0.8816191,-1.2617716
-0.8579102,0.07949297,0.53666943,0.18793271,-1.095348,0.28151712,-0.40818954,0.7608149,0.82895154,0.50134444,0.9123137,-1.2102034
-0.6310153,0.1628023,0.5314702,0.060726047,-0.95517784,0.32266128,-0.39242664,0.9838664,1.1175631,0.56114453,0.97677237,-1.1492594
-0.5794482,0.32545382,0.71344316,-0.078595564,-1.1303905,0.50095236,-0.39557925,1.171556,1.3934417,0.66828644,1.1118286,-1.0133073
-0.09471821,0.690428,0.9474084,-0.4965604,-1.1187097,0.81181896,-0.39557925,1.2123581,1.6099002,0.8053284,1.2683709,-0.8257871
0.04966947,0.9324218,1.191772,-0.7267439,-1.3172841,1.0586835,-0.39557925,1.1960372,1.7287403,0.92991203,1.4586773,-0.65233094
0.059982877,1.1109416,1.4257374,-0.8660655,-1.5742629,1.2689756,-0.39557925,1.1198733,1.6396103,0.98722047,1.516997,-0.54450685
0.2971912,1.2775604,1.5245227,-1.0659617,-1.550901,1.4061226,-0.40503702,0.9457844,1.4231517,0.9722704,1.4709551,-0.49762678
0.111549914,1.1863167,1.4985265,-0.938755,-1.6209863,1.3421206,-0.41449472,0.7444941,1.2279145,0.95981205,1.4494689,-0.47418675
-0.06377799,0.9998626,1.3425497,-0.74491626,-1.5392205,1.1638296,-0.42395246,0.49696136,0.95203584,0.8950286,1.415705,-0.60076284
-0.42474714,0.79357284,1.2541627,-0.48444545,-1.6443479,1.0083964,-0.43025765,0.26302937,0.6252258,0.7604783,1.3205516,-0.75546706
-0.651642,0.5753818,1.0877875,-0.24820445,-1.5976245,0.8072474,-0.44286793,0.07533973,0.34510294,0.63589466,1.1762872,-0.9054832
-0.6825823,0.3928947,0.8590215,-0.1028254,-1.3523268,0.60152686,-0.43971536,-0.066107534,0.14562145,0.52376944,1.0565783,-1.0414352
-0.71352255,0.2461116,0.6822477,0.018323816,-1.177114,0.44152203,-0.42710504,-0.16403256,-0.011417139,0.42659426,0.9460777,-1.0508113
-0.78571635,0.17073652,0.619857,0.10312827,-1.1537522,0.36837694,-0.42710504,-0.21299505,-0.12176859,0.37925246,0.8632024,-1.0648754
-0.84759676,0.14693385,0.619857,0.13341556,-1.177114,0.35466224,-0.42710504,-0.2565173,-0.16845573,0.35433576,0.8263689,-1.0836273
-0.8372833,0.1270983,0.5938609,0.14553049,-1.1420714,0.3318044,-0.42710504,-0.28371868,-0.16845573,0.321944,0.79260486,-1.1023793
-0.87853694,0.107262745,0.5782632,0.1758178,-1.1537522,0.3135181,-0.42710504,-0.2782784,-0.17270002,0.30201063,0.7557713,-1.0976914
-0.8888504,0.07949297,0.5522671,0.20004764,-1.1303905,0.28608873,-0.4113421,-0.28371868,-0.19392146,0.29204395,0.73428506,-1.0789393
-0.9507308,0.075525865,0.5782632,0.2242775,-1.1887947,0.29523185,-0.37981632,-0.2782784,-0.18967716,0.28456894,0.71893775,-1.0883154
-0.89916384,0.10329563,0.5834624,0.18187526,-1.165433,0.3135181,-0.34829053,-0.28371868,-0.18118858,0.27709392,0.7035905,-1.0789393
-0.7547762,0.15486807,0.5834624,0.10312827,-1.0836672,0.3455191,-0.31676477,-0.27555826,-0.15996715,0.26214388,0.69438213,-1.0836273
-0.8372833,0.14296675,0.60945857,0.13341556,-1.165433,0.35009065,-0.29154414,-0.2646777,-0.15147859,0.26463553,0.6728959,-1.0836273
-0.9094772,0.107262745,0.5990601,0.18187526,-1.2004756,0.3272328,-0.27578124,-0.26739785,-0.13450144,0.27211055,0.6790348,-1.0601873
-1.0641782,0.06362453,0.619857,0.26062226,-1.2939224,0.304375,-0.26001835,-0.2646777,-0.11328001,0.28207725,0.68824315,-1.0226833
-1.053865,0.047756083,0.5886617,0.2666797,-1.2588799,0.28608873,-0.24110287,-0.270118,-0.10903572,0.28706062,0.68824315,-0.9945553
-0.69289565,0.26198003,0.6926462,0.00015143344,-1.165433,0.4552367,-0.22534,-0.2646777,-0.007172853,0.30201063,0.7035905,-0.96173924
-0.6310153,0.42463157,0.86941993,-0.13917017,-1.3406458,0.62438464,-0.23164514,-0.29187912,0.090445735,0.34686074,0.70052105,-0.92892325
-0.36286673,0.5079409,0.848623,-0.2845492,-1.1537522,0.6655288,-0.24425545,-0.30003953,0.090445735,0.36430243,0.70666,-0.9148592
-0.043151174,0.61505294,0.8226269,-0.4602156,-0.95517784,0.7158161,-0.25686577,-0.36532292,-0.058104288,0.36181077,0.7158683,-0.8914192
-0.0740914,0.58728313,0.8070292,-0.4299283,-0.95517784,0.6929582,-0.26317093,-0.4904493,-0.25758576,0.34935242,0.7220072,-0.8820432
-0.16691203,0.5238094,0.77583385,-0.35118127,-0.97853947,0.642671,-0.28839156,-0.50405,-0.28305143,0.34187737,0.7035905,-0.85391515
-0.5897617,0.2500787,0.619857,-0.018020948,-1.0369438,0.4140926,-0.27578124,-0.4904493,-0.26183003,0.24719384,0.66061807,-0.85391515
-0.8682236,-0.011750571,0.4170872,0.26062226,-0.9668587,0.1763711,-0.27262866,-0.5094903,-0.2957843,0.13756025,0.55932593,-0.9570513
-1.053865,-0.12282967,0.37029415,0.39994383,-1.013582,0.08951132,-0.2663235,-0.48772916,-0.3297386,0.10516851,0.4733811,-1.0179954
-1.208566,-0.2497772,0.28190732,0.5453229,-1.0019013,-0.02020629,-0.26317093,-0.50405,-0.3891586,0.052843392,0.43961704,-1.0414352
-1.1260587,-0.19027056,0.31830192,0.47263336,-0.99022037,0.030080952,-0.2537132,-0.47140834,-0.3297386,0.0877268,0.4304087,-1.0648754
-0.94041747,-0.19820476,0.21431737,0.42417368,-0.7682842,-0.024777856,-0.24740803,-0.46596804,-0.3891586,0.01795998,0.3997141,-1.0789393
-0.7650895,-0.08315855,0.27670807,0.28485212,-0.7449226,0.07579663,-0.2694761,-0.45236737,-0.33822718,0.077760115,0.3843668,-1.1070673
-0.78571635,-0.33705366,-0.045643985,0.49080575,-0.3944971,-0.21221212,-0.22534,-0.42516598,-0.35520434,-0.07672357,0.32604712,-1.1305075
-0.87853694,-0.8924491,-0.72674274,0.9390578,0.31803462,-0.8339452,-0.29784927,-0.3326812,-0.17270002,-0.26858234,0.14801852,-1.2617716
0.2971912,0.48413822,0.48467714,-0.4602156,-0.38281626,0.49180925,-0.17174615,0.32559258,1.5419917,1.0221039,1.1916344,-0.33354664
3.6593614,3.840314,3.193474,-4.0098877,-1.5158587,3.6141896,-0.9851115,-0.95015293,3.2015076,4.086861,4.337829,2.5683286
3.906883,5.3716183,5.070395,-5.2456098,-3.4899218,5.3239555,-2.5614007,-4.0239105,1.4273959,5.1308713,5.620863,3.7168894
-0.06377799,2.5391016,3.3546503,-1.9200636,-3.8053048,2.9375978,-2.5393326,-4.5896997,-2.8381116,1.3684465,2.2843616,0.96034276
-2.1161456,-0.26167855,0.72384155,0.81790864,-2.0064542,0.16722795,-1.5557282,-2.9984179,-3.5044646,-1.0709009,-0.30933076,-1.2477076
-1.8789374,-0.4362314,0.37549338,0.87848324,-1.480816,-0.08420822,-0.6761587,-1.499621,-1.492673,-0.47040778,-0.15585785,-1.2570837
-1.4973414,-0.38465896,0.25071195,0.73310417,-1.1303905,-0.11163763,-0.17174615,-0.7080605,-0.70748013,-0.29349905,-0.023871137,-1.1539475
-1.3323269,-0.3568892,0.19871968,0.66041464,-0.97853947,-0.1162092,-0.042490434,-0.44420698,-0.3042729,-0.15147375,0.077420995,-1.1305075
-1.1879392,-0.30134964,0.19871968,0.57561016,-0.8850927,-0.08420822,0.06154466,-0.31636038,-0.2406086,-0.1639321,0.080490455,-1.0883154
-1.053865,-0.313251,0.1259305,0.5453229,-0.7332417,-0.12535234,0.0867653,-0.2646777,-0.13450144,-0.16891545,0.0620737,-1.0695633
-0.97135764,-0.27357987,0.13112973,0.49080575,-0.6981992,-0.10249449,0.12144366,-0.23475617,-0.07932572,-0.14898206,0.08662937,-1.0273713
-0.8888504,-0.2815141,0.07913746,0.47263336,-0.5813907,-0.12535234,0.14666428,-0.21843535,-0.045371428,-0.17639045,0.05900424,-1.0086193
-0.89916384,-0.2497772,0.1259305,0.454461,-0.6514758,-0.08877979,0.16557975,-0.2021145,0.001315719,-0.14898206,0.08969882,-0.98517925
-0.87853694,-0.24581009,0.12073127,0.44840354,-0.63979495,-0.08877979,0.19395296,-0.14771172,0.09893431,-0.16144042,0.083559915,-0.9804913
-0.84759676,-0.21407321,0.14672741,0.4060013,-0.63979495,-0.056778822,0.20971586,-0.055226974,0.28992718,-0.11409865,0.10811557,-0.96173924
-0.7650895,-0.17043498,0.16232508,0.35754162,-0.61643326,-0.029349422,0.27276742,0.06989945,0.34510294,-0.10413197,0.10811557,-0.95236325
-0.7238359,-0.15059943,0.16232508,0.32725433,-0.5930715,-0.015634721,0.3925654,0.24942869,0.5955158,-0.06924856,0.12653232,-0.9382992
-0.62070185,-0.09109278,0.19871968,0.24850734,-0.5697099,0.03465252,0.4650747,0.42351758,0.84592867,-0.03685681,0.13881016,-0.9195472
-0.5691349,-0.03952035,0.2403135,0.1939902,-0.5930715,0.08036819,0.49344793,0.6520093,1.1387845,0.042876706,0.15108798,-0.8398511
-0.43506056,0.12313119,0.3806926,0.03043874,-0.6748375,0.23580147,0.48714274,0.8233781,1.4528617,0.17244367,0.2523801,-0.741403
-0.20816565,0.42066446,0.66145086,-0.26031935,-0.86173105,0.5329533,0.4619221,0.80705726,1.6693203,0.321944,0.4150614,-0.58669883
-0.12565842,0.63488847,0.8954161,-0.45415816,-1.0836672,0.7615317,0.44615924,0.79889685,1.7032745,0.45400265,0.5777427,-0.42261872
0.08060969,0.83324397,1.0513929,-0.6601118,-1.1420714,0.93982285,0.4209386,0.7771358,1.6099002,0.48390272,0.6728959,-0.3991787
0.008415851,0.8967178,1.1709751,-0.6903991,-1.3172841,1.0312542,0.40202314,0.6737704,1.5971675,0.47393602,0.70052105,-0.4132427
-0.03283777,0.8848164,1.1761743,-0.6661693,-1.3523268,1.0266826,0.3831077,0.47248012,1.4189073,0.45400265,0.69438213,-0.41793072
-0.09471821,0.7658031,1.0461936,-0.557135,-1.2355182,0.8986787,0.3641922,0.21134672,1.0496545,0.38921916,0.5501176,-0.43199474
-0.5794482,0.46430266,0.9006153,-0.18762985,-1.3406458,0.6609572,0.34842932,-0.011704739,0.70586723,0.28706062,0.39050576,-0.46481076
-0.651642,0.29371694,0.71344316,-0.030135868,-1.165433,0.47809452,0.33266643,-0.20483464,0.43423295,0.17493534,0.26465794,-0.6148269
-0.5691349,0.18263784,0.5262709,0.024381278,-0.9084544,0.33637595,0.31375095,-0.3190805,0.27719435,0.052843392,0.1203934,-0.736715
-0.7032091,0.06759164,0.44828254,0.15158795,-0.9084544,0.23580147,0.30114064,-0.41700557,0.13713288,-0.026890123,0.016031824,-0.760155
-0.8166566,-0.015717681,0.39109105,0.24850734,-0.8967736,0.16265638,0.31375095,-0.47684863,0.01404858,-0.0468235,-0.045357347,-0.7882831
-0.82697,-0.059355896,0.33389956,0.28485212,-0.83836937,0.10779759,0.31375095,-0.48500907,-0.007172853,-0.07672357,-0.08219084,-0.8164111
-0.7960297,-0.07522434,0.30270422,0.29090956,-0.79164594,0.08951132,0.31690353,-0.49316946,-0.032638572,-0.09665695,-0.10367706,-0.8257871
-0.82697,-0.11489545,0.26630962,0.3333118,-0.7682842,0.04836722,0.33266643,-0.48228893,-0.045371428,-0.12904869,-0.1589273,-0.8257871
-0.7960297,-0.134731,0.22471583,0.3333118,-0.6981992,0.020937815,0.32636127,-0.48500907,-0.07083715,-0.18386547,-0.23566374,-0.8398511
-0.8372833,-0.17836921,0.18832123,0.375714,-0.6865183,-0.02020629,0.33897159,-0.48500907,-0.08357,-0.18635716,-0.23873322,-0.85391515
-0.9816711,-0.24581009,0.17792279,0.47263336,-0.7566034,-0.06135039,0.34527674,-0.48500907,-0.066592865,-0.18635716,-0.2786362,-0.8445391
-1.0022979,-0.23390877,0.19871968,0.47263336,-0.79164594,-0.04763569,0.34527674,-0.48228893,-0.062348574,-0.1988155,-0.31546968,-0.8257871
-0.9094772,-0.20613898,0.18832123,0.42417368,-0.7215609,-0.033920992,0.35788706,-0.46324795,-0.066592865,-0.20130718,-0.3062613,-0.792971
-0.9507308,-0.18630344,0.22991504,0.42417368,-0.79164594,-0.0064915866,0.3641922,-0.44420698,-0.058104288,-0.19632384,-0.31240022,-0.760155
-0.82697,-0.15853366,0.20911813,0.3635991,-0.6981992,-0.0019200192,0.36103964,-0.43060625,-0.07083715,-0.16642377,-0.3062613,-0.72733897
-0.651642,-0.04348746,0.27670807,0.2242775,-0.6865183,0.09408289,0.37995508,-0.40340486,-0.028394284,-0.13652371,-0.31240022,-0.6945229
-0.60007507,0.1310654,0.4742787,0.07284097,-0.8734119,0.28151712,0.39571798,-0.3979646,0.12015574,-0.111606985,-0.29398346,-0.6945229
-0.2906729,0.2897498,0.5314702,-0.13311271,-0.7682842,0.3958063,0.37995508,-0.35716248,0.13288859,-0.10413197,-0.29705292,-0.708587
-0.22879247,0.44843423,0.70304465,-0.2724343,-0.9201353,0.5649543,0.3641922,-0.3789236,0.039514296,-0.08918193,-0.290914,-0.708587
-0.3525533,0.5079409,0.8434238,-0.2845492,-1.1537522,0.6609572,0.35473445,-0.4958896,-0.002928566,-0.08170691,-0.28170562,-0.722651
-0.2906729,0.51587516,0.8226269,-0.31483653,-1.0836672,0.65638566,0.33897159,-0.523091,-0.04112714,-0.06675688,-0.27556673,-0.732027
-0.2906729,0.3214867,0.5678648,-0.16340001,-0.8033268,0.43237886,0.3232087,-0.52853125,-0.05386,-0.06675688,-0.29705292,-0.732027
-0.7341493,-0.023651903,0.33909878,0.23033497,-0.79164594,0.135227,0.31375095,-0.5366917,-0.0878143,-0.1988155,-0.53340125,-0.75077903
-1.1466855,-0.21804032,0.29230577,0.5029207,-0.97853947,0.0026515482,0.29483548,-0.5856542,-0.10479144,-0.25114062,-0.6838047,-0.77421904
-0.91979057,-0.36482343,-0.014448623,0.5453229,-0.4996248,-0.21678367,0.29483548,-0.5883743,-0.12176859,-0.3084491,-0.7421244,-0.7835951
-0.71352255,-0.33705366,-0.08203857,0.47263336,-0.30105034,-0.23049839,0.26961485,-0.6046952,-0.15572289,-0.3433325,-0.78509676,-0.8117231
-0.91979057,-0.3806919,-0.03524553,0.5634953,-0.47626308,-0.23506995,0.26961485,-0.58021396,-0.14299001,-0.31094077,-0.7513328,-0.8117231
-0.9919844,-0.4957381,-0.14962852,0.6664721,-0.3944971,-0.3493591,0.2633097,-0.6046952,-0.21514289,-0.38569093,-0.8157913,-0.8398511
-0.930104,-0.3529221,0.0115475105,0.53926545,-0.5346673,-0.19849741,0.2633097,-0.5856542,-0.13874574,-0.2810407,-0.7390549,-0.79765904
-0.71352255,-0.8210411,-0.71634424,0.836081,0.39980057,-0.7882296,0.27907258,-0.48500907,-0.17270002,-0.552633,-0.9723338,-0.9148592
-0.37318015,-0.88054776,-0.9659071,0.7815639,0.8670346,-0.9299481,0.33266643,-0.15587214,0.45969865,-0.37323257,-0.9385697,-0.92892325
1.4213524,1.479883,1.2229673,-1.5505584,-0.5697099,1.3878363,0.1592746,0.004616099,2.182879,1.7322305,1.1271758,0.86189467
3.8140624,4.7963877,4.3633003,-4.785243,-2.7423477,4.683936,-1.205792,-2.334704,2.4842231,4.784529,4.1904955,3.5012412
2.1845443,4.665473,5.0132036,-4.203727,-4.401028,4.8942285,-2.280821,-4.769229,-0.7881215,3.8925107,3.5888813,2.9527447
-0.8888504,1.0038298,1.7636871,-0.5086753,-2.4853692,1.3512638,-1.8047818,-4.1000743,-3.7718549,-0.430541,-0.23873322,-0.005386288
-1.4354609,-0.745666,-0.25361305,0.9875175,-0.5229865,-0.5413649,-0.9504331,-2.3238235,-2.5367675,-1.3699015,-1.5309751,-1.1398834
-0.9816711,-0.44813275,-0.09243702,0.6301274,-0.44122055,-0.29907185,-0.26317093,-1.0807196,-0.868763,-0.68469167,-1.0613481,-0.9382992
-0.7547762,-0.4322643,-0.19122232,0.55138034,-0.20760356,-0.33107284,0.011103406,-0.5693334,-0.3934029,-0.66725,-0.9385697,-0.9195472
-0.80634314,-0.38862607,-0.09763625,0.53926545,-0.34777373,-0.26707092,0.10568077,-0.387084,-0.066592865,-0.4679161,-0.76668006,-0.8164111
-0.7960297,-0.3965603,-0.11843316,0.53926545,-0.31273118,-0.28078562,0.17819007,-0.28643882,0.005560006,-0.53768295,-0.7697495,-0.7882831
-0.8166566,-0.37672475,-0.08203857,0.5271505,-0.37113544,-0.25335622,0.1750375,-0.24019647,0.13288859,-0.45794943,-0.6745963,-0.75077903
-0.5175678,-0.36482343,-0.21721846,0.43023115,-0.044071663,-0.30821502,0.20025814,-0.19123393,0.14986573,-0.4679161,-0.6346934,-0.732027
-0.19785225,-0.36482343,-0.3783945,0.33936927,0.30635378,-0.37221694,0.20341069,-0.16131242,0.1880643,-0.43801606,-0.6039988,-0.708587
-0.2597327,-0.34102073,-0.31600377,0.33936927,0.212907,-0.3356444,0.23493649,-0.11779019,0.2220186,-0.41309932,-0.5640958,-0.6710829
-0.24941927,-0.34102073,-0.32120302,0.3333118,0.212907,-0.3356444,0.25700453,-0.07154781,0.31539294,-0.40562433,-0.5456791,-0.66639495
-0.30098632,-0.3211852,-0.26921073,0.3333118,0.13114107,-0.30364344,0.28853032,0.031817496,0.40452293,-0.37074092,-0.48735937,-0.65233094
-0.3112997,-0.313251,-0.25361305,0.3333118,0.11946022,-0.28992873,0.35473445,0.16782448,0.54882866,-0.36575755,-0.4566648,-0.713275
-0.37318015,-0.30928388,-0.21721846,0.3454267,0.03769428,-0.27164248,0.41778603,0.3745551,0.8077301,-0.31343243,-0.40448397,-0.67577094
-0.23910587,-0.24184297,-0.20162079,0.2545648,0.09609851,-0.22592682,0.42724377,0.58128566,1.0751201,-0.27356568,-0.36765048,-0.53044283
-0.05346458,-0.11489545,-0.11843316,0.10312827,0.10777937,-0.1162092,0.4209386,0.79073644,1.367976,-0.18884881,-0.3216086,-0.41793072
-0.13597183,0.04378898,0.1259305,0.0062088952,-0.21928439,0.08036819,0.42724377,0.937624,1.6735646,-0.071740225,-0.18655244,-0.28197858
0.04966947,0.26594716,0.3235011,-0.21791714,-0.3360929,0.29523185,0.4209386,0.94034415,1.8051375,0.050351717,-0.020801676,-0.1975945
0.34875822,0.51190805,0.4950756,-0.4965604,-0.3594546,0.5146671,0.42724377,0.92946357,1.7584503,0.15749364,0.12653232,-0.17884247
0.5343995,0.71819776,0.6718493,-0.7085715,-0.45290136,0.7066729,0.40832826,0.8451392,1.7372289,0.18988538,0.19406043,-0.15071443
0.4106387,0.7578689,0.7862323,-0.702514,-0.6514758,0.779818,0.3831077,0.6873711,1.6056559,0.18490204,0.20019934,-0.13665043
0.21468396,0.7023294,0.81222844,-0.5995372,-0.79164594,0.7615317,0.3641922,0.47248012,1.3382659,0.18988538,0.18792148,-0.1085224
0.10123649,0.5396778,0.66145086,-0.44204322,-0.6865183,0.60152686,0.33897159,0.22222728,1.0072116,0.0877268,0.052865323,-0.10383439
-0.084404804,0.31751958,0.45868102,-0.21791714,-0.5697099,0.3866632,0.31690353,0.012776517,0.61673725,-0.08669026,-0.10981598,-0.2116585
-0.2597327,0.15486807,0.32870036,-0.04225079,-0.5229865,0.2312299,0.29483548,-0.15043186,0.33237004,-0.2162572,-0.24487214,-0.35698664
-0.6103885,-0.051421676,0.2403135,0.21822004,-0.61643326,0.07122506,0.28222516,-0.24019647,0.1880643,-0.31094077,-0.33388644,-0.4132427
-0.6825823,-0.15059943,0.14672741,0.3151394,-0.54634815,-0.02020629,0.28222516,-0.30547982,0.115911454,-0.36824924,-0.37685886,-0.44605875
-0.54850805,-0.15059943,0.07913746,0.27879465,-0.3944971,-0.052207258,0.28222516,-0.34084165,0.07346858,-0.39814928,-0.43210912,-0.47418675
-0.4866276,-0.14663233,0.053141326,0.2545648,-0.3360929,-0.06135039,0.28222516,-0.35444233,0.018292863,-0.4255577,-0.4474564,-0.46949878
-0.4866276,-0.15853366,0.037543643,0.26062226,-0.31273118,-0.0750651,0.28222516,-0.36260277,-0.015661426,-0.4604411,-0.46280372,-0.47887477
-0.6722689,-0.24184297,0.021945965,0.38177145,-0.40617797,-0.1299239,0.28222516,-0.37076318,-0.032638572,-0.47289947,-0.4842899,-0.49762678
-0.651642,-0.2537443,-0.0040501705,0.38782892,-0.3594546,-0.14821018,0.28222516,-0.3843639,-0.058104288,-0.4778828,-0.49349827,-0.49762678
-0.6103885,-0.24581009,-0.0092493985,0.36965656,-0.3360929,-0.14363861,0.28222516,-0.38980415,-0.07083715,-0.48535782,-0.50884557,-0.4882508
-0.6722689,-0.2537443,0.006348283,0.3938864,-0.3944971,-0.14363861,0.28222516,-0.37620345,-0.09630287,-0.49532452,-0.5149845,-0.46012273
-0.6722689,-0.24581009,0.016746737,0.38177145,-0.3944971,-0.13449547,0.28222516,-0.37620345,-0.10054715,-0.50030786,-0.5303318,-0.44137073
-0.6825823,-0.2537443,0.0115475105,0.3938864,-0.3944971,-0.14363861,0.28853032,-0.37348333,-0.066592865,-0.49034116,-0.54260963,-0.42261872
-0.62070185,-0.20217188,0.04274287,0.3333118,-0.3944971,-0.09792293,0.29798806,-0.35716248,-0.03688286,-0.48535782,-0.52726233,-0.3991787
-0.52788126,-0.18233633,0.027145192,0.29090956,-0.32441205,-0.08877979,0.30429322,-0.36804304,0.009804293,-0.48535782,-0.4904288,-0.38042668
-0.39380693,-0.08712567,0.08433668,0.18187526,-0.31273118,-0.015634721,0.31690353,-0.3381215,0.02253715,-0.4803745,-0.46280372,-0.34761065
-0.4866276,0.055690315,0.3235011,0.097070806,-0.63979495,0.17179953,0.3200561,-0.251077,0.10742287,-0.37074092,-0.44438693,-0.2960426
-0.38349357,0.19057207,0.44308332,-0.03619333,-0.7215609,0.304375,0.3074458,-0.20483464,0.1286443,-0.30346575,-0.43517858,-0.24916254
-0.0740914,0.37702623,0.53666943,-0.26637682,-0.6514758,0.45066515,0.28222516,-0.30547982,0.005560006,-0.3159241,-0.4259702,-0.22572252
0.018729258,0.4365329,0.5626655,-0.33906636,-0.6281141,0.4963808,0.26646227,-0.40884513,-0.024149999,-0.3184158,-0.40755343,-0.23978654
-0.022524366,0.41273025,0.5522671,-0.31483653,-0.6281141,0.47809452,0.24124163,-0.41700557,-0.049615715,-0.33336583,-0.40755343,-0.25385055
-0.4556874,0.13899963,0.41188797,0.024381278,-0.7332417,0.2586593,0.22232617,-0.42244586,-0.049615715,-0.35080752,-0.40448397,-0.26791456
-0.8166566,-0.19027056,0.16232508,0.38177145,-0.6514758,-0.038492557,0.20656328,-0.43060625,-0.10479144,-0.48535782,-0.48735937,-0.28666657
-1.0022979,-0.2854812,0.13112973,0.5089781,-0.70988005,-0.107066065,0.20025814,-0.45236737,-0.15996715,-0.5152579,-0.5395402,-0.28666657
-0.71352255,-0.4362314,-0.21721846,0.5453229,-0.16088015,-0.34478757,0.20656328,-0.45780766,-0.28729573,-0.6024664,-0.5671653,-0.3101066
-0.33192652,-0.3925932,-0.34719914,0.39994383,0.20122615,-0.37678853,0.18134265,-0.46596804,-0.33822718,-0.6373499,-0.5763737,-0.30541858
-0.71352255,-0.48383674,-0.27440995,0.57561016,-0.09079506,-0.39964634,0.19395296,-0.44148684,-0.26183003,-0.6273832,-0.58251256,-0.3101066
-0.7960297,-0.53937626,-0.31080455,0.64829975,-0.1024759,-0.44536203,0.18449523,-0.48228893,-0.28305143,-0.65728325,-0.6101377,-0.3101066
-0.69289565,-0.4282972,-0.21201923,0.53320795,-0.1491993,-0.34021598,0.20971586,-0.41972572,-0.14723429,-0.5850247,-0.5702348,-0.2960426
-0.6310153,-0.99559397,-0.98670405,0.94511527,0.75022614,-1.0076648,0.2191736,-0.3517222,-0.19392146,-0.87655044,-0.8710416,-0.45074674
-0.21847907,-0.6266527,-0.71634424,0.5453229,0.6801409,-0.67394036,0.3925654,0.23038769,0.76953155,-0.34084082,-0.49963722,-0.13665043
2.2154846,2.1661932,1.7272925,-2.307741,-0.6865183,2.004998,0.014255982,0.012776517,2.6073077,2.1308982,1.9651377,2.0151439
4.4638066,5.145493,4.493281,-5.2395525,-2.5204115,4.939944,-1.6786786,-2.8705714,2.2804976,4.7895126,4.700025,4.4154024
1.7101277,4.022801,4.4100933,-3.5798082,-3.9805176,4.254209,-2.454213,-4.733867,-1.4247644,2.8285663,3.1745043,3.130889
-1.2807598,0.37305915,1.1345805,0.09101334,-1.9947734,0.7158161,-1.6471529,-3.6376507,-3.8737175,-1.1855178,-0.5579569,0.25245398
-1.156999,-0.7218634,-0.3627968,0.8905982,-0.25432694,-0.5733659,-0.6540907,-1.885881,-2.2142017,-1.4247184,-1.2455156,-0.46481076
-0.7960297,-0.48780385,-0.23801537,0.6058975,-0.18424185,-0.38593164,-0.017269803,-0.80326533,-0.82207584,-0.9114338,-0.8710416,-0.35698664
-0.71352255,-0.53937626,-0.34719914,0.6180124,-0.009029117,-0.45907673,0.17188491,-0.3789236,-0.39764717,-0.87655044,-0.8188608,-0.32417062
-0.7341493,-0.48780385,-0.26921073,0.58772516,-0.11415675,-0.39507478,0.2916829,-0.17491311,-0.0878143,-0.73203343,-0.6745963,-0.26322654
-0.7032091,-0.5155736,-0.32120302,0.59984004,-0.032390814,-0.4362189,0.32951382,-0.13139088,-0.10903572,-0.7918335,-0.73291606,-0.25385055
-0.6619555,-0.47590253,-0.29000762,0.55743784,-0.055752512,-0.39964634,0.34212413,-0.093308926,0.02253715,-0.69964164,-0.6930131,-0.20228249
-0.7341493,-0.4957381,-0.2796092,0.59378254,-0.1024759,-0.40421793,0.36734477,-0.033465855,0.01404858,-0.7220667,-0.71756876,-0.18821847
-0.6722689,-0.4719354,-0.2796092,0.55743784,-0.06743336,-0.39507478,0.3768025,0.04269805,0.115911454,-0.6697416,-0.7052909,-0.14602643
-0.6310153,-0.44416562,-0.2640115,0.5271505,-0.06743336,-0.37221694,0.40202314,0.08622029,0.15411003,-0.6697416,-0.70222145,-0.12727441
-0.62070185,-0.4322643,-0.25361305,0.51503557,-0.06743336,-0.35850227,0.41778603,0.12702239,0.1880643,-0.6498082,-0.6838047,-0.09914639
-0.55882144,-0.40052742,-0.24321459,0.4665759,-0.032390814,-0.3356444,0.44300666,0.26030922,0.3535915,-0.61741644,-0.6500406,-0.07570636
-0.5381946,-0.38862607,-0.23801537,0.454461,-0.032390814,-0.32650128,0.49029532,0.39903632,0.4766758,-0.5949914,-0.63776284,-0.047578335
-0.54850805,-0.3568892,-0.19122232,0.43023115,-0.1024759,-0.28535718,0.59433043,0.6220878,0.7440658,-0.5351913,-0.6039988,-0.019450305
-0.3525533,-0.2537443,-0.15482776,0.30302447,-0.020709965,-0.21221212,0.6227036,0.8560198,1.04541,-0.48286617,-0.5702348,0.003989721
0.029042665,-0.08712567,-0.12883162,0.060726047,0.16618359,-0.107066065,0.6006356,1.0736309,1.2915788,-0.3881826,-0.48735937,0.107125826
0.13217671,0.083460085,0.0479421,-0.1028254,0.0143325785,0.06665349,0.6006356,1.2014775,1.5929232,-0.2436656,-0.30933076,0.25245398
0.2765644,0.33338803,0.297505,-0.33906636,-0.18424185,0.32266128,0.5848727,1.1688359,1.6905417,-0.09416527,-0.14358002,0.42122215
0.5240862,0.6071187,0.5314702,-0.6177096,-0.30105034,0.578669,0.5848727,1.1688359,1.6947861,0.010484963,-0.020801676,0.50560623
0.5859665,0.7539018,0.6926462,-0.75097376,-0.45290136,0.73867387,0.56280464,1.092672,1.6523432,0.0877268,0.071282074,0.5102942
0.7716078,0.79357284,0.6510525,-0.8357782,-0.30105034,0.7432454,0.5249737,0.8913816,1.4061745,0.09520182,0.074351534,0.5102942
0.6684738,0.71026355,0.5886617,-0.7388588,-0.2893695,0.6655288,0.49029532,0.6438489,1.1175631,0.0055016177,0.0037539902,0.5149822
0.24562417,0.51984227,0.5522671,-0.47233054,-0.4879439,0.5420965,0.45246437,0.36639467,0.78226435,-0.111606985,-0.15585785,0.4962302
0.08060969,0.33735514,0.40148953,-0.2845492,-0.40617797,0.36837694,0.43670148,0.20046616,0.43423295,-0.23619059,-0.31240022,0.32277402
-0.05346458,0.14693385,0.21431737,-0.09676794,-0.27768862,0.1763711,0.41778603,0.06717931,0.15835431,-0.36824924,-0.4413175,0.1821339
-0.42474714,-0.04348746,0.15712586,0.15764542,-0.41785884,0.043795653,0.40832826,-0.057947114,-0.024149999,-0.44549108,-0.52419287,0.1680699
-0.5381946,-0.10696122,0.13112973,0.23639242,-0.45290136,-0.0019200192,0.3925654,-0.098749205,-0.13874574,-0.49034116,-0.54874855,0.13994186
-0.4763142,-0.118862554,0.08433668,0.23033497,-0.3594546,-0.029349422,0.3768025,-0.13683116,-0.20665431,-0.5227329,-0.59785986,0.12587784
-0.4763142,-0.14266522,0.053141326,0.24850734,-0.32441205,-0.06135039,0.38941282,-0.15859228,-0.21938716,-0.53768295,-0.63776284,0.10243782
-0.44537398,-0.16250077,0.0115475105,0.2545648,-0.26600778,-0.08877979,0.3925654,-0.15859228,-0.2363643,-0.560108,-0.6531101,0.0789978
-0.46600077,-0.18630344,-0.0092493985,0.27879465,-0.24264611,-0.11163763,0.3925654,-0.15859228,-0.24909718,-0.5700747,-0.6531101,0.064933784
-0.37318015,-0.17836921,-0.045643985,0.24244986,-0.16088015,-0.120780766,0.3925654,-0.15859228,-0.2703186,-0.58751637,-0.6838047,0.04149376
-0.3112997,-0.16646789,-0.061241668,0.2242775,-0.11415675,-0.120780766,0.3925654,-0.15859228,-0.2745629,-0.5949914,-0.7237077,0.03211775
-0.2803595,-0.1744021,-0.0872378,0.21216257,-0.06743336,-0.13906702,0.39571798,-0.15315199,-0.2745629,-0.58253306,-0.7237077,0.008677726
-0.20816565,-0.16646789,-0.11323394,0.1939902,0.0143325785,-0.14363861,0.40832826,-0.13411102,-0.2745629,-0.58751637,-0.7206382,-0.005386288
-0.24941927,-0.17836921,-0.10803471,0.2061051,-0.020709965,-0.14821018,0.41463342,-0.120510325,-0.2788072,-0.58004135,-0.7083604,0.013365732
-0.2700461,-0.16250077,-0.07683935,0.2061051,-0.06743336,-0.12535234,0.42724377,-0.10690963,-0.2703186,-0.5700747,-0.71142983,0.060245775
-0.22879247,-0.11489545,-0.040444758,0.15764542,-0.079114206,-0.08420822,0.4335489,-0.08786865,-0.28305143,-0.57505804,-0.69608253,0.09774982
-0.084404804,-0.055388786,-0.024847079,0.06678351,-0.009029117,-0.04306412,0.43985406,-0.08242837,-0.22363146,-0.54266626,-0.6531101,0.13994186
-0.2906729,0.008084981,0.15712586,0.07889842,-0.34777373,0.07122506,0.4650747,-0.014424879,-0.12601288,-0.47289947,-0.60706824,0.21494994
-0.30098632,0.15090097,0.34949723,-0.030135868,-0.5697099,0.24037303,0.4619221,0.045418195,-0.13874574,-0.47040778,-0.585582,0.271206
-0.115345016,0.3135525,0.46907946,-0.20580222,-0.5930715,0.3820916,0.4335489,-0.030745717,-0.19392146,-0.47539115,-0.585582,0.30871004
-0.13597183,0.33338803,0.50547403,-0.21791714,-0.6514758,0.4140926,0.41778603,-0.068827674,-0.25758576,-0.4679161,-0.57330424,0.30402204
0.32813144,0.31751958,0.25591117,-0.34512383,-0.1024759,0.29523185,0.3925654,-0.098749205,-0.32125002,-0.4803745,-0.5702348,0.25245398
0.2971912,0.17867073,0.08433668,-0.22397462,0.07273682,0.13979857,0.3768025,-0.1259506,-0.3085172,-0.45794943,-0.5671653,0.21494994
-0.012210959,-0.08712567,-0.10803471,0.07284097,0.10777937,-0.09792293,0.3768025,-0.14499158,-0.35096005,-0.54266626,-0.68073523,0.1727579
-0.21847907,-0.2537443,-0.2224177,0.26062226,0.13114107,-0.23964152,0.37364995,-0.20483464,-0.41038004,-0.59249973,-0.76668006,0.12587784
-0.4763142,-0.3806919,-0.25361305,0.43023115,0.0143325785,-0.33107284,0.3831077,-0.21027493,-0.4528229,-0.63236654,-0.8096525,0.107125826
-0.44537398,-0.36482343,-0.25361305,0.4060013,0.026013428,-0.32192972,0.37049738,-0.22115548,-0.4613115,-0.6348582,-0.8188608,0.0836858
-0.49694103,-0.36482343,-0.22761692,0.42417368,-0.020709965,-0.31278658,0.38626027,-0.19939438,-0.4528229,-0.6273832,-0.8035136,0.064933784
-0.42474714,-0.38862607,-0.29520687,0.4181162,0.08441767,-0.35393068,0.36103964,-0.23203604,-0.5164872,-0.67223334,-0.83727765,0.05086977
-0.54850805,-0.3211852,-0.1444293,0.4060013,-0.1491993,-0.24878466,0.3641922,-0.19123393,-0.4316015,-0.5949914,-0.7697495,-0.047578335
-0.30098632,-0.8726135,-0.98670405,0.75733405,0.93711966,-0.9345197,0.36734477,-0.18307352,-0.5504415,-0.9114338,-1.1135288,-0.26791456
0.19405715,-0.7258305,-1.0490948,0.49686322,1.2875451,-0.8796609,0.51866853,0.39359608,0.36632434,-0.55014133,-0.92015296,-0.019450305
2.3083053,1.9400679,1.3789443,-2.162362,-0.24264611,1.7215607,0.27592,0.4996815,2.5224218,1.8617975,1.5077887,2.160472
4.9897904,5.0740848,4.1345344,-5.342529,-1.8195606,4.738795,-1.3161322,-2.1578948,2.8831863,4.642504,4.4176354,4.7998185
2.5661404,4.209255,4.2229214,-3.9674854,-3.2913475,4.281638,-2.2177696,-4.306805,-0.749923,3.0029836,3.2205462,3.7965856
-0.9507308,0.6229871,1.2957565,-0.19974476,-1.9947734,0.9306797,-1.4706085,-3.4744425,-3.8991833,-0.96375895,-0.5364707,0.77282256
-1.3323269,-0.61871845,-0.13923006,0.86031085,-0.5930715,-0.4179326,-0.487004,-1.7498739,-2.6089203,-1.4122598,-1.4941417,-0.22103451
-1.0022979,-0.47986963,-0.123632394,0.66041464,-0.42953968,-0.33107284,0.23178391,-0.56117296,-1.1743516,-0.88153374,-1.0490701,-0.09445838
-0.6619555,-0.55127764,-0.38879296,0.6180124,0.07273682,-0.48650613,0.45246437,-0.15315199,-0.79236585,-0.83668363,-1.021445,-0.09445838
-0.5691349,-0.48383674,-0.34719914,0.53926545,0.07273682,-0.4316473,0.5123634,-0.028025575,-0.4825329,-0.68469167,-0.97847265,-0.014762299
-0.55882144,-0.5155736,-0.39919144,0.5634953,0.13114107,-0.47279143,0.5470417,0.07805987,-0.44857863,-0.7544585,-1.0091673,0.008677726
-0.41443378,-0.44416562,-0.36799604,0.46051842,0.17786445,-0.4179326,0.5470417,0.14334321,-0.3042729,-0.6797083,-0.9723338,0.055557776
-0.2803595,-0.3965603,-0.3783945,0.38782892,0.27131125,-0.39507478,0.5817201,0.20046616,-0.28305143,-0.7071167,-0.9907505,0.08837381
-0.15659863,-0.3529221,-0.38359374,0.3151394,0.34139633,-0.37221694,0.5848727,0.24126825,-0.20665431,-0.6697416,-0.9723338,0.12118984
-0.14628522,-0.32515234,-0.35239837,0.29090956,0.31803462,-0.34021598,0.61639845,0.2929509,-0.15147859,-0.66725,-0.953917,0.15400587
-0.15659863,-0.313251,-0.33160147,0.28485212,0.2829921,-0.32650128,0.6258562,0.3772752,-0.0878143,-0.6423332,-0.94470865,0.15869388
-0.13597183,-0.277547,-0.29520687,0.2545648,0.2596304,-0.28992873,0.66053456,0.4915211,0.031025724,-0.61243314,-0.9262919,0.15869388
-0.15659863,-0.26961276,-0.27440995,0.24850734,0.22458784,-0.27621406,0.7015181,0.6520093,0.1923086,-0.5949914,-0.9170835,0.15869388
-0.05346458,-0.20613898,-0.23801537,0.1758178,0.2362687,-0.22135524,0.7614171,0.8424191,0.3917901,-0.5401746,-0.90173626,0.15869388
0.111549914,-0.118862554,-0.21201923,0.060726047,0.30635378,-0.15735331,0.8276213,1.076351,0.69313437,-0.48535782,-0.8618333,0.16338187
0.12186332,-0.0038163497,-0.06644089,-0.030135868,0.14282192,-0.033920992,0.8654522,1.3048428,0.99023443,-0.38569093,-0.82499975,0.21026194
0.317818,0.23024318,0.14152817,-0.26637682,0.0143325785,0.19465737,0.93165636,1.3755665,1.2618687,-0.25861564,-0.7237077,0.41653416
0.5859665,0.48413822,0.33909878,-0.54502004,-0.055752512,0.4278073,0.8938254,1.3483651,1.3637317,-0.13403204,-0.5364707,0.6274944
0.7509811,0.73009914,0.573064,-0.781261,-0.21928439,0.6701004,0.8118583,1.326604,1.2788459,-0.024398452,-0.41676185,0.7118785
0.8231749,0.8967178,0.76023614,-0.9326976,-0.3944971,0.8483915,0.7897903,1.288522,1.2618687,0.060318407,-0.39527562,0.77282256
0.9881894,0.95622444,0.74983776,-1.0235595,-0.2893695,0.8803925,0.75511193,1.1280338,1.1769831,0.07526844,-0.41369238,0.75875854
1.0294429,0.92845464,0.69784546,-1.0114446,-0.20760356,0.83924836,0.7015181,0.8614601,0.93505865,0.025434995,-0.41062292,0.7212545
0.64784706,0.67455953,0.5626655,-0.7085715,-0.26600778,0.6335278,0.635314,0.6438489,0.5658058,-0.091673605,-0.47201207,0.6649984
0.48283252,0.41669735,0.297505,-0.4602156,-0.06743336,0.36837694,0.5848727,0.4398384,0.20928575,-0.21376555,-0.6316239,0.5149822
0.23531078,0.20644051,0.14672741,-0.23003207,-0.032390814,0.18094265,0.53443146,0.27118978,-0.08357,-0.3433325,-0.79430515,0.3649661
-0.12565842,-0.0038163497,0.053141326,0.0364962,-0.13751845,0.020937815,0.515516,0.17326476,-0.3085172,-0.4679161,-0.9232224,0.25714198
-0.22879247,-0.10696122,-0.024847079,0.15158795,-0.09079506,-0.0750651,0.5123634,0.10254112,-0.3934029,-0.5102745,-0.9723338,0.25245398
-0.19785225,-0.14266522,-0.0872378,0.16976033,-0.009029117,-0.120780766,0.49975303,0.06989945,-0.44433433,-0.53020793,-0.9968894,0.25245398
-0.16691203,-0.16646789,-0.13403085,0.1758178,0.06105597,-0.15278174,0.49344793,0.053578608,-0.49951005,-0.552633,-1.0398618,0.25245398
-0.20816565,-0.19820476,-0.15482776,0.21216257,0.06105597,-0.18021114,0.48399016,0.034537636,-0.50799865,-0.55761635,-1.0736259,0.25245398
-0.22879247,-0.22994165,-0.18602309,0.24244986,0.08441767,-0.21221212,0.49975303,0.018216796,-0.50799865,-0.567583,-1.1043204,0.25245398
-0.19785225,-0.24184297,-0.21721846,0.24850734,0.13114107,-0.23506995,0.5029056,-0.00354432,-0.50799865,-0.5725664,-1.1165982,0.275894
-0.115345016,-0.22994165,-0.24321459,0.21216257,0.212907,-0.23964152,0.5029056,-0.00354432,-0.50799865,-0.58004135,-1.1073899,0.275894
-0.115345016,-0.21804032,-0.23281613,0.20004764,0.20122615,-0.22592682,0.515516,0.023657078,-0.50799865,-0.5850247,-1.0981815,0.275894
-0.10503161,-0.2101061,-0.2224177,0.1939902,0.1895453,-0.21678367,0.51866853,0.045418195,-0.49102148,-0.57505804,-1.0920426,0.275894
-0.0740914,-0.19820476,-0.2224177,0.1758178,0.212907,-0.21221212,0.51866853,0.06989945,-0.46555576,-0.56259966,-1.0797648,0.271206
-0.09471821,-0.19027056,-0.20162079,0.1758178,0.17786445,-0.19392584,0.515516,0.105261266,-0.44857863,-0.5476496,-1.0797648,0.28527
-0.0740914,-0.17836921,-0.19642155,0.15158795,0.17786445,-0.18478271,0.5249737,0.14606336,-0.4273572,-0.5326996,-1.0613481,0.32277402
0.04966947,-0.12282967,-0.18602309,0.07889842,0.2362687,-0.15278174,0.5092108,0.15694392,-0.41038004,-0.51774955,-1.0306535,0.34152606
-0.0740914,-0.015717681,0.016746737,0.03043874,-0.055752512,-0.0019200192,0.57226235,0.18142518,-0.3891586,-0.50529116,-0.99382,0.39309412
0.04966947,0.14693385,0.16752431,-0.12705524,-0.16088015,0.15351327,0.635314,0.20862658,-0.37642574,-0.49034116,-0.9355002,0.44935018
0.43126547,0.29371694,0.17272355,-0.35118127,0.04937513,0.2449446,0.61324584,0.17054461,-0.38491434,-0.4803745,-0.846486,0.4727902
0.19405715,0.30561826,0.297505,-0.29060668,-0.23096526,0.304375,0.59433043,0.121582106,-0.37218145,-0.4604411,-0.75747174,0.48685423
0.28687778,0.29371694,0.2403135,-0.31483653,-0.11415675,0.272374,0.5817201,0.09166057,-0.49102148,-0.45296606,-0.7513328,0.4540382
0.3384448,0.20644051,0.09473514,-0.26031935,0.08441767,0.15808482,0.5533469,0.053578608,-0.5928844,-0.44549108,-0.7697495,0.41653416
0.07029628,-0.011750571,-0.050843213,-0.011963488,0.09609851,-0.029349422,0.44300666,0.031817496,-0.5801515,-0.4504744,-0.7697495,0.38840613
0.13217671,-0.19423765,-0.31600377,0.10918573,0.43484312,-0.24878466,0.33897159,-0.008984599,-0.6268387,-0.52024126,-0.7973746,0.35090208
-0.0740914,-0.3806919,-0.45638293,0.3151394,0.46988568,-0.4179326,0.33266643,-0.008984599,-0.5843958,-0.55761635,-0.7912357,0.31808606
-0.19785225,-0.47590253,-0.52397287,0.4181162,0.48156655,-0.5047924,0.30429322,-0.036185995,-0.6056172,-0.59249973,-0.8219302,0.289958
-0.22879247,-0.42036298,-0.43558604,0.3938864,0.3530772,-0.4316473,0.28222516,-0.038906135,-0.5801515,-0.560108,-0.8157913,0.25245398
-0.23910587,-0.45606697,-0.4771798,0.4181162,0.39980057,-0.47279143,0.26961485,-0.049786694,-0.60137296,-0.6149248,-0.8495554,0.23370196
-0.32161313,-0.3965603,-0.35239837,0.39994383,0.22458784,-0.38136005,0.24124163,-0.074267946,-0.5928844,-0.567583,-0.84034705,0.1821339
-0.16691203,-0.5631789,-0.65395355,0.47869083,0.6450984,-0.60993844,0.29798806,0.034537636,-0.5589301,-0.6473165,-0.8925278,0.1774459
0.04966947,-1.0312979,-1.3766459,0.7755064,1.5678854,-1.1950991,0.3200561,0.18142518,-0.4231129,-0.879042,-1.1964042,0.09774982
0.9366224,0.055690315,-0.39919144,-0.32089397,0.9721622,-0.14363861,0.43670148,0.8723406,1.1727388,0.2422105,-0.18041351,0.8431426
4.494747,3.3642607,2.1432304,-3.8887386,0.13114107,2.8827388,-0.35459572,-0.066107534,3.1802862,3.2671008,2.9749897,3.7450178
5.1857452,5.2089667,4.212523,-5.500023,-1.7961991,4.8530846,-1.9498003,-3.1480258,1.8348475,4.587687,4.5219965,5.245179
1.1016369,2.5867066,2.8347275,-2.3016837,-2.567135,2.731877,-2.079056,-4.051112,-2.6556075,1.1217707,1.5323443,2.6808405
-1.1363721,-0.24581009,0.25071195,0.5210931,-0.9318161,-0.029349422,-1.1364353,-2.514233,-3.8440077,-1.5144184,-1.2178904,0.43528616
-0.9610442,-0.50367224,-0.17562464,0.6664721,-0.34777373,-0.36764538,-0.27578124,-0.9882349,-1.921346,-1.0410008,-1.1104593,0.29933405
-0.6825823,-0.47986963,-0.2848084,0.5634953,-0.06743336,-0.39964634,0.2633097,-0.16403256,-1.1021986,-0.83917534,-0.8587638,0.275894
-0.41443378,-0.4997052,-0.44598445,0.5029207,0.2596304,-0.48193455,0.3768025,0.13246265,-0.69899154,-0.7220667,-0.78202736,0.26183
-0.2906729,-0.47590253,-0.4719806,0.454461,0.36475804,-0.48193455,0.41778603,0.24126825,-0.5928844,-0.69715,-0.73598546,0.24776596
-0.32161313,-0.4997052,-0.49797672,0.47869083,0.37643886,-0.5047924,0.4335489,0.2847905,-0.5249758,-0.70213336,-0.7390549,0.21963795
-0.23910587,-0.46003407,-0.48237905,0.42417368,0.41148144,-0.477363,0.45246437,0.333753,-0.4613115,-0.6622666,-0.6930131,0.25245398
-0.13597183,-0.45209986,-0.52397287,0.38782892,0.5166091,-0.4910777,0.47137988,0.39087594,-0.4528229,-0.67721665,-0.69608253,0.24776596
-0.09471821,-0.41242877,-0.49797672,0.33936927,0.5049282,-0.45450515,0.49975303,0.46703982,-0.37218145,-0.6373499,-0.65924907,0.25714198
-0.05346458,-0.3925932,-0.48757827,0.32119685,0.5166091,-0.44079044,0.54388916,0.5187225,-0.36369288,-0.6448249,-0.65617955,0.25245398
-0.0018975561,-0.36482343,-0.48237905,0.27879465,0.53997076,-0.4225042,0.57541496,0.61936766,-0.20665431,-0.6024664,-0.625485,0.25245398
0.059982877,-0.34102073,-0.4771798,0.24244986,0.5750133,-0.40421793,0.61955106,0.73905385,-0.045371428,-0.58751637,-0.6193461,0.25714198
0.04966947,-0.32515234,-0.45638293,0.23639242,0.53997076,-0.38593164,0.6542294,0.8859413,0.09469002,-0.55761635,-0.59785986,0.275894
0.26625097,-0.2497772,-0.46158212,0.10918573,0.6801409,-0.34478757,0.7141284,1.1280338,0.34085864,-0.51774955,-0.58251256,0.275894
0.5859665,-0.09505989,-0.4199883,-0.1028254,0.8086303,-0.23964152,0.76772225,1.3429248,0.642203,-0.4504744,-0.5579569,0.30402204
0.61690676,0.06362453,-0.22761692,-0.23003207,0.598375,-0.06135039,0.8055532,1.522454,0.93505865,-0.34084082,-0.45052585,0.43528616
0.699414,0.2897498,0.027145192,-0.4299283,0.36475804,0.1763711,0.79609543,1.6366999,1.1812273,-0.21127386,-0.30933076,0.6368704
1.0397564,0.56348044,0.20911813,-0.7388588,0.3530772,0.4140926,0.7614171,1.579577,1.1939603,-0.071740225,-0.17427461,0.8009505
1.0088161,0.7578689,0.48987636,-0.87818044,0.0143325785,0.6518141,0.739349,1.4734915,1.1260517,-0.004465072,-0.05456572,0.9415907
0.8231749,0.8094413,0.64065397,-0.860008,-0.25432694,0.74781704,0.7078232,1.3891672,1.1048301,0.027926667,-0.017732218,1.0259749
0.8850553,0.7816716,0.5782632,-0.860008,-0.1491993,0.70210135,0.67945004,1.2123581,0.98174584,0.04038503,-0.042287886,1.0119108
0.83348835,0.71819776,0.52107173,-0.79337597,-0.1258376,0.642671,0.62900877,0.93490386,0.62947005,-0.026890123,-0.07298247,0.90408665
0.6581604,0.52777654,0.3598957,-0.5995372,-0.032390814,0.4598083,0.57541496,0.6900913,0.24324003,-0.16144042,-0.21724701,0.7259425
0.37969843,0.26991427,0.16232508,-0.32089397,0.026013428,0.22665833,0.5501943,0.50784194,-0.032638572,-0.31343243,-0.4014145,0.6087424
0.14249012,0.055690315,0.001149056,-0.08465301,0.07273682,0.030080952,0.5501943,0.37183496,-0.29154003,-0.42057434,-0.50270665,0.5384223
0.08060969,-0.051421676,-0.10803471,0.018323816,0.16618359,-0.07963666,0.5470417,0.27390993,-0.4613115,-0.4978162,-0.5794431,0.50560623
0.08060969,-0.102994114,-0.18082388,0.054668583,0.24794956,-0.13906702,0.53443146,0.20590644,-0.55468583,-0.55014133,-0.62241554,0.49154225
0.07029628,-0.14663233,-0.22761692,0.09101334,0.29467294,-0.18478271,0.53443146,0.18958561,-0.6225944,-0.5775497,-0.63776284,0.45872617
-0.012210959,-0.19027056,-0.24321459,0.15158795,0.27131125,-0.21678367,0.53443146,0.18142518,-0.6438158,-0.59997475,-0.6500406,0.43528616
-0.084404804,-0.2854812,-0.33160147,0.24244986,0.3297155,-0.30821502,0.53443146,0.17054461,-0.6565487,-0.61990815,-0.6623185,0.4071581
-0.115345016,-0.3172181,-0.35759762,0.27879465,0.34139633,-0.3356444,0.53443146,0.15966405,-0.6565487,-0.6348582,-0.6745963,0.39309412
-0.13597183,-0.30531678,-0.33160147,0.27273718,0.30635378,-0.32192972,0.53443146,0.15422377,-0.6650372,-0.6348582,-0.68687415,0.36965412
-0.16691203,-0.313251,-0.32120302,0.29090956,0.27131125,-0.32192972,0.53443146,0.17054461,-0.67777014,-0.6348582,-0.69608253,0.36027807
-0.19785225,-0.30928388,-0.30040607,0.29090956,0.22458784,-0.30821502,0.537584,0.18414532,-0.67777014,-0.6348582,-0.7083604,0.33683807
-0.20816565,-0.30928388,-0.30040607,0.29696703,0.22458784,-0.30821502,0.5470417,0.20046616,-0.6650372,-0.6373499,-0.7237077,0.32277402
-0.21847907,-0.2854812,-0.2640115,0.28485212,0.17786445,-0.28078562,0.5564995,0.21678701,-0.63957155,-0.6298748,-0.71756876,0.33683807
0.059982877,-0.2497772,-0.35759762,0.1758178,0.43484312,-0.29907185,0.56280464,0.22766757,-0.6225944,-0.60744977,-0.6899437,0.35090208
0.2765644,-0.20613898,-0.4095899,0.07889842,0.6217367,-0.29907185,0.57541496,0.2439884,-0.60137296,-0.58253306,-0.67152685,0.34152606
0.35907164,-0.07125723,-0.27440995,-0.048308257,0.5166091,-0.16192488,0.5785675,0.24670854,-0.5801515,-0.5650913,-0.6500406,0.35559008
0.32813144,0.03982187,-0.11323394,-0.12705524,0.30635378,-0.024777856,0.597483,0.27118978,-0.56741863,-0.5152579,-0.62241554,0.43059817
0.42095205,0.14693385,-0.019647852,-0.23608954,0.2596304,0.07579663,0.61639845,0.30383146,-0.57590723,-0.4803745,-0.59785986,0.44935018
0.7716078,0.32545382,0.03234442,-0.47838795,0.39980057,0.19922893,0.5817201,0.22494742,-0.56741863,-0.48784947,-0.5702348,0.42122215
0.83348835,0.3651249,0.06353977,-0.52684766,0.39980057,0.23580147,0.54388916,0.17054461,-0.5801515,-0.4803745,-0.5579569,0.41653416
0.977876,0.3571907,-0.024847079,-0.5631924,0.5866942,0.19465737,0.5123634,0.15966405,-0.6820144,-0.49034116,-0.585582,0.39778212
0.7612945,0.22627605,-0.08203857,-0.39358354,0.5166091,0.09408289,0.48083758,0.13246265,-0.70748013,-0.4778828,-0.5947904,0.39778212
0.61690676,-0.055388786,-0.38359374,-0.13917017,0.77358776,-0.19849741,0.477685,0.12430224,-0.70748013,-0.55761635,-0.6162766,0.34152606
0.37969843,-0.28944832,-0.56556666,0.11524319,0.8553537,-0.41336107,0.44931182,0.08622029,-0.7371901,-0.6298748,-0.6500406,0.21494994
-0.022524366,-0.40449452,-0.5187736,0.32119685,0.5633325,-0.46364832,0.45246437,0.09166057,-0.7244572,-0.6298748,-0.6745963,0.1774459
0.07029628,-0.4243301,-0.5915628,0.30302447,0.70350266,-0.5047924,0.4209386,0.053578608,-0.7626558,-0.6547916,-0.6838047,0.18682191
-0.13597183,-0.46400118,-0.5395705,0.39994383,0.5282899,-0.5047924,0.4335489,0.07805987,-0.720213,-0.6298748,-0.665388,0.1680699
0.018729258,-0.48383674,-0.6435551,0.36965656,0.73854524,-0.5596512,0.45246437,0.037257776,-0.8050987,-0.68967503,-0.71756876,0.15869388
-0.06377799,-0.38862607,-0.4771798,0.3151394,0.5049282,-0.4316473,0.45876953,0.053578608,-0.7159687,-0.6099415,-0.6531101,0.15400587
-0.022524366,-0.7575673,-0.9815048,0.58772516,1.0889708,-0.8659462,0.5060582,0.12974252,-0.7881215,-0.8292087,-0.8311387,0.14462987
0.39001185,-1.0233637,-1.537822,0.6664721,1.9533534,-1.2636726,0.515516,0.4452787,-0.35944858,-0.83668363,-0.9293613,0.10243782
1.9370226,0.9006849,0.20391892,-1.2537429,0.8670346,0.6060984,0.45561695,0.9865865,1.6862974,0.9348954,0.8079521,1.4666471
5.247626,4.244959,2.9231145,-4.785243,-0.31273118,3.7284787,-0.76127833,-0.96375364,2.8746974,4.0320444,4.0646477,4.4435306
4.113151,4.6853085,4.066944,-4.785243,-2.240071,4.4827876,-2.0822089,-3.7981389,0.13713288,3.8700855,4.224259,4.6216745
0.008415851,1.3767381,1.8052808,-1.0538468,-2.029816,1.5844138,-1.697594,-3.6675723,-3.8270307,-0.19632384,0.5071451,1.5697833
-0.82697,-0.73773175,-0.549969,0.80579364,0.15450276,-0.66479725,-0.72029483,-1.945724,-3.4577775,-1.6514604,-1.282349,-0.014762299
-0.36286673,-0.6068172,-0.6071605,0.5695528,0.48156655,-0.61451,0.07415498,-0.5910945,-1.5690702,-1.0185758,-0.96312535,0.036805756
-0.19785225,-0.50367224,-0.56036747,0.44234604,0.5166091,-0.53679335,0.4745324,0.056298748,-1.0088245,-0.96375895,-0.8925278,0.03211775
-0.0740914,-0.5552447,-0.6851489,0.44840354,0.72686434,-0.6190816,0.537584,0.27390993,-0.5843958,-0.7793752,-0.78202736,0.0836858
0.008415851,-0.6306198,-0.8307272,0.47869083,0.93711966,-0.72422767,0.597483,0.35823423,-0.5419529,-0.7868503,-0.806583,0.10243782
0.111549914,-0.5949158,-0.8411257,0.42417368,1.0072048,-0.71051294,0.6542294,0.4099169,-0.4273572,-0.7245584,-0.7544023,0.13994186
0.17343034,-0.57111317,-0.8359265,0.3938864,1.0422473,-0.6967982,0.6636871,0.43439817,-0.41038004,-0.71957505,-0.7421244,0.15400587
0.28687778,-0.5552447,-0.8775203,0.33936927,1.1473749,-0.7059413,0.657382,0.49696136,-0.35944858,-0.70213336,-0.7237077,0.16338187
0.3384448,-0.5274749,-0.8619226,0.30302447,1.1590558,-0.68308353,0.6636871,0.5540843,-0.31700575,-0.6697416,-0.69608253,0.1821339
0.36938506,-0.5155736,-0.8619226,0.28485212,1.1824174,-0.67394036,0.657382,0.61392736,-0.2406086,-0.66725,-0.68687415,0.19150992
0.39001185,-0.48383674,-0.8307272,0.26062226,1.1590558,-0.6419394,0.6699923,0.7308933,-0.058104288,-0.6273832,-0.6531101,0.21026194
0.42095205,-0.4679683,-0.825528,0.23033497,1.1707367,-0.6282247,0.6983655,0.8288184,0.02253715,-0.6223998,-0.63776284,0.21026194
0.43126547,-0.44019854,-0.7995319,0.21216257,1.1473749,-0.6053669,0.7740274,1.0301087,0.24748433,-0.58751637,-0.585582,0.25245398
0.46220568,-0.42036298,-0.7839342,0.18793271,1.1473749,-0.58708066,0.8276213,1.2531601,0.48940864,-0.5152579,-0.551818,0.275894
0.45189226,-0.29738253,-0.6123597,0.097070806,0.9488005,-0.44079044,0.8118583,1.4762117,0.82470727,-0.41060767,-0.46587315,0.32277402
0.5447129,-0.10696122,-0.4147891,-0.078595564,0.77358776,-0.23964152,0.8024006,1.6312596,1.1302959,-0.3084491,-0.33695588,0.42591015
1.0088161,0.19453919,-0.25881228,-0.44204322,0.8553537,-0.0019200192,0.7929429,1.6094984,1.2618687,-0.1714071,-0.22338592,0.5384223
1.1738307,0.4365329,-0.019647852,-0.67828417,0.6801409,0.24037303,0.77717996,1.5741367,1.367976,-0.03685681,-0.08832976,0.7118785
1.1325771,0.59918445,0.20911813,-0.79337597,0.39980057,0.43695045,0.77087486,1.5088532,1.3297774,0.015468307,0.0620737,0.8009505
1.2047709,0.71026355,0.3235011,-0.89635277,0.31803462,0.5512396,0.739349,1.367406,1.1939603,-0.014431762,0.14801852,0.75875854
1.0500698,0.59125024,0.2403135,-0.76308864,0.31803462,0.44609356,0.68890774,1.1661156,0.9477916,-0.034365144,0.11732395,0.73063046
0.9366224,0.41669735,0.07393823,-0.59347975,0.44652396,0.272374,0.6542294,0.92946357,0.61673725,-0.06924856,0.016031824,0.70719045
0.874742,0.22230895,-0.14962852,-0.42387083,0.6567792,0.062081926,0.6321614,0.71729267,0.27719435,-0.17639045,-0.13130218,0.59467834
0.6581604,0.008084981,-0.32120302,-0.19974476,0.72686434,-0.13449547,0.61639845,0.5404836,-0.05386,-0.30346575,-0.2694278,0.4540382
0.5447129,-0.14266522,-0.46678138,-0.048308257,0.83199203,-0.28535718,0.6006356,0.40719676,-0.21938716,-0.41808265,-0.38299775,0.40247014
0.42095205,-0.28944832,-0.5915628,0.10312827,0.90207714,-0.42707577,0.5817201,0.33103284,-0.34671575,-0.48535782,-0.46587315,0.3649661
0.3075046,-0.3529221,-0.61755896,0.18187526,0.87871546,-0.477363,0.56595725,0.30927175,-0.44857863,-0.5152579,-0.48122045,0.32277402
0.39001185,-0.3568892,-0.65915275,0.15764542,0.9604814,-0.49564928,0.5501943,0.2929509,-0.4570672,-0.5326996,-0.49963722,0.275894
0.35907164,-0.37275764,-0.66435194,0.18187526,0.9488005,-0.50936395,0.5501943,0.27118978,-0.47404432,-0.54515797,-0.5211234,0.25245398
0.317818,-0.3806919,-0.65915275,0.1939902,0.92543876,-0.50936395,0.5501943,0.24942869,-0.4867772,-0.560108,-0.5211234,0.24776596
0.3075046,-0.3925932,-0.66435194,0.2061051,0.92543876,-0.51393557,0.5470417,0.23854813,-0.50799865,-0.5700747,-0.5395402,0.22901396
0.2765644,-0.40052742,-0.65915275,0.2242775,0.90207714,-0.5230787,0.5533469,0.24942869,-0.49951005,-0.57505804,-0.5303318,0.21963795
0.23531078,-0.41242877,-0.65915275,0.24244986,0.87871546,-0.52765024,0.5407366,0.24670854,-0.4825329,-0.5850247,-0.58251256,0.20088592
0.14249012,-0.4243301,-0.6279574,0.28485212,0.79694945,-0.51850706,0.53127885,0.25486895,-0.49102148,-0.5900081,-0.65617955,0.21494994
0.08060969,-0.4322643,-0.6071605,0.30908194,0.72686434,-0.51393557,0.53443146,0.2657495,-0.4867772,-0.59997475,-0.64390177,0.23370196
-0.022524366,-0.45209986,-0.5863636,0.35148418,0.6450984,-0.51850706,0.5218211,0.26030922,-0.4867772,-0.59249973,-0.6500406,0.24307796
-0.03283777,-0.44019854,-0.56036747,0.3454267,0.61005586,-0.50022084,0.5218211,0.27663007,-0.4867772,-0.567583,-0.64697117,0.266518
0.059982877,-0.38862607,-0.5395705,0.28485212,0.6450984,-0.45907673,0.515516,0.29023075,-0.44009003,-0.54266626,-0.64697117,0.275894
0.25593758,-0.2815141,-0.49797672,0.14553049,0.70350266,-0.38136005,0.5691098,0.3065516,-0.37642574,-0.49034116,-0.6316239,0.31339803
0.49314588,-0.14266522,-0.43038678,-0.03619333,0.7619069,-0.27164248,0.65107685,0.32015228,-0.3297386,-0.430541,-0.5364707,0.33683807
0.5859665,0.04378898,-0.23801537,-0.20580222,0.598375,-0.07963666,0.6416191,0.30383146,-0.31276146,-0.42057434,-0.49349827,0.31808606
0.7303542,0.16676942,-0.14962852,-0.33906636,0.5750133,0.030080952,0.597483,0.26030922,-0.32125002,-0.41808265,-0.49349827,0.30871004
0.8644285,0.1628023,-0.2224177,-0.37541112,0.72686434,-0.0064915866,0.5533469,0.23038769,-0.31276146,-0.40313265,-0.48122045,0.29464602
1.0397564,0.17867073,-0.29000762,-0.44204322,0.913758,-0.024777856,0.4966005,0.2031863,-0.3254943,-0.40811598,-0.478151,0.280582
0.80254805,-0.07125723,-0.49797672,-0.18157241,1.0188856,-0.2579278,0.4682273,0.18958561,-0.3085172,-0.38569093,-0.4904288,0.271206
0.32813144,-0.44019854,-0.7423404,0.24244986,1.0305665,-0.58250904,0.45561695,0.17054461,-0.40613574,-0.48286617,-0.6346934,0.25245398
0.3384448,-0.50763935,-0.8359265,0.29090956,1.1240133,-0.65565413,0.43670148,0.14062308,-0.47404432,-0.53768295,-0.69608253,0.22901396
0.19405715,-0.6306198,-0.92431337,0.42417368,1.1473749,-0.7653717,0.4335489,0.13790293,-0.4570672,-0.55761635,-0.6930131,0.20557392
-0.084404804,-0.7575673,-0.95030946,0.59984004,1.0188856,-0.8522315,0.40202314,0.12702239,-0.47828862,-0.54266626,-0.69608253,0.19150992
-0.12565842,-0.8051727,-0.9919033,0.6543572,1.0422473,-0.89794713,0.4209386,0.15694392,-0.44433433,-0.54266626,-0.6838047,0.16338187
-0.012210959,-0.8012056,-1.0438955,0.611955,1.1707367,-0.92080504,0.4209386,0.121582106,-0.5037543,-0.567583,-0.71142983,0.14462987
0.14249012,-0.7139291,-1.0075009,0.5029207,1.21746,-0.8568031,0.4240912,0.1623842,-0.38491434,-0.4978162,-0.6531101,0.107125826
0.23531078,-1.2574233,-1.766588,0.89665556,2.1168854,-1.5013942,0.48399016,0.23854813,-0.35096005,-0.7968169,-0.9109446,-0.010074293
0.699414,-0.97972554,-1.6366073,0.5453229,2.2336936,-1.2819589,0.6384665,0.7499343,0.49365294,-0.3358575,-0.6039988,0.28527
3.0508704,1.765515,0.77583385,-2.2471664,0.8553537,1.360407,0.23493649,0.5214426,2.212589,2.063623,1.7993871,2.319864
5.1960588,4.6892753,3.5262249,-5.106288,-1.013582,4.2496376,-1.369726,-2.239499,1.8857789,4.779546,4.5895247,4.7435627
2.6795876,3.6816294,3.4794316,-3.5979803,-2.4036033,3.6507623,-2.192549,-4.1517572,-1.7685516,2.92325,3.1468794,3.5574975
-0.46600077,0.091394305,0.35469645,0.06678351,-0.6631566,0.20837206,-1.4485404,-3.1045034,-4.158085,-1.1207343,-0.58251256,0.6368704
-0.55882144,-1.0947717,-1.1530794,0.9996325,0.983843,-1.1402402,-0.48069885,-1.3581738,-2.4858358,-1.3923266,-1.3253214,-0.07570636
-0.3112997,-0.87658066,-0.99710256,0.76339155,0.9488005,-0.9436628,0.18449523,-0.27555826,-1.0724887,-0.879042,-0.97847265,0.11650184
-0.10503161,-0.924186,-1.1582785,0.7391617,1.2408217,-1.0396657,0.4240912,0.1759849,-0.60137296,-0.8317003,-0.9262919,0.1680699
0.03935606,-0.8289753,-1.1062863,0.6180124,1.2641834,-0.9619491,0.49029532,0.3772752,-0.25334147,-0.63236654,-0.76668006,0.25714198
0.07029628,-0.84484375,-1.1426809,0.62406987,1.3225876,-0.9893785,0.5092108,0.43711826,-0.2660743,-0.6871833,-0.80044407,0.25245398
0.20437056,-0.7932713,-1.1426809,0.5453229,1.4043536,-0.95737755,0.5249737,0.48336065,-0.13450144,-0.6049581,-0.73291606,0.25714198
0.26625097,-0.78137004,-1.1582785,0.5210931,1.4510771,-0.95737755,0.5470417,0.4915211,-0.15572289,-0.6448249,-0.73598546,0.24776596
0.37969843,-0.7416989,-1.1634778,0.46051842,1.521162,-0.93909127,0.56595725,0.5377634,-0.08357,-0.59997475,-0.70222145,0.25714198
0.13217671,-0.8091398,-1.1322824,0.58166766,1.3459494,-0.9619491,0.61639845,0.61120725,-0.045371428,-0.6049581,-0.68073523,0.24776596
0.04966947,-0.84881085,-1.1374816,0.6301274,1.3109068,-0.98480695,0.635314,0.6601697,0.06498001,-0.58751637,-0.65924907,0.25714198
0.16311693,-0.7932713,-1.1270832,0.55743784,1.3576301,-0.952806,0.6636871,0.77985585,0.16684288,-0.5476496,-0.625485,0.19150992
0.13217671,-0.79723847,-1.1114855,0.5695528,1.3225876,-0.94823444,0.7078232,0.92130315,0.30690435,-0.52024126,-0.61320716,0.24776596
0.35907164,-0.7059949,-1.1062863,0.43628863,1.4510771,-0.8933756,0.72673875,1.1198733,0.59976006,-0.46542445,-0.57330424,0.40247014
0.67878723,-0.5750803,-1.0958878,0.24244986,1.6146089,-0.815659,0.72358614,1.3102831,0.82470727,-0.40811598,-0.5211234,0.42591015
1.0294429,-0.40052742,-1.0438955,0.0062088952,1.7664598,-0.6922266,0.72358614,1.503413,1.1345403,-0.31343243,-0.4198313,0.4399742
1.0913235,-0.25771144,-0.8879187,-0.12099779,1.6146089,-0.53679335,0.7109758,1.6176589,1.4358845,-0.19383216,-0.2694278,0.53373426
1.0088161,-0.059355896,-0.5863636,-0.24820445,1.2291409,-0.28992873,0.7078232,1.5904576,1.5377475,-0.041840162,-0.097538136,0.7212545
1.3491585,0.2461116,-0.35759762,-0.5813648,1.1590558,-0.015634721,0.7078232,1.5741367,1.5037931,0.050351717,0.04672641,0.8337666
1.3594718,0.41669735,-0.13403085,-0.714629,0.913758,0.18094265,0.6731449,1.4979728,1.4316403,0.07526844,0.10197666,0.86189467
1.1635172,0.41273025,-0.045643985,-0.65405434,0.70350266,0.2175152,0.61639845,1.3130033,1.3000673,0.057826735,0.06514316,0.8150146
1.0500698,0.2897498,-0.14962852,-0.53290516,0.7619069,0.09865446,0.57541496,1.0899518,1.0496545,0.03041834,0.031379115,0.7634465
0.8231749,0.15090097,-0.21721846,-0.35723874,0.70350266,-0.0064915866,0.5533469,0.8614601,0.70162296,-0.041840162,-0.0054543857,0.7212545
0.8231749,-0.03952035,-0.46678138,-0.21185969,0.9955239,-0.22592682,0.537584,0.6411288,0.37056863,-0.19383216,-0.14051056,0.5571743
0.62722015,-0.32515234,-0.7423404,0.060726047,1.1940984,-0.51393557,0.5218211,0.48336065,0.115911454,-0.32838246,-0.26021942,0.4399742
0.40032527,-0.49177095,-0.846325,0.2545648,1.1824174,-0.65565413,0.5029056,0.4099169,-0.04112714,-0.42057434,-0.31546968,0.4399742
0.32813144,-0.5473105,-0.8827195,0.32119685,1.1824174,-0.70136976,0.48714274,0.3745551,-0.16845573,-0.4679161,-0.35537264,0.43528616
0.15280353,-0.5988829,-0.8619226,0.41205877,1.0539281,-0.72422767,0.48714274,0.36639467,-0.2703186,-0.49532452,-0.35230318,0.41653416
0.059982877,-0.65045536,-0.8827195,0.47869083,1.0305665,-0.7608001,0.48714274,0.35007384,-0.2745629,-0.51276624,-0.36765048,0.41653416
-0.14628522,-0.7059949,-0.8515241,0.58166766,0.87871546,-0.7790864,0.48714274,0.333753,-0.2745629,-0.52024126,-0.36458102,0.41653416
-0.0018975561,-0.73376465,-0.96070796,0.5634953,1.0772898,-0.8430884,0.48714274,0.32015228,-0.2745629,-0.5277162,-0.39527562,0.41653416
0.2971912,-0.7575673,-1.1426809,0.49080575,1.4510771,-0.93909127,0.48714274,0.31471202,-0.2745629,-0.53768295,-0.4474564,0.41653416
0.22499737,-0.7774029,-1.1322824,0.5271505,1.4043536,-0.9436628,0.48083758,0.31743217,-0.2745629,-0.5476496,-0.4259702,0.41653416
0.22499737,-0.7734358,-1.1322824,0.5210931,1.4043536,-0.9436628,0.45876953,0.31471202,-0.24909718,-0.5401746,-0.41369238,0.41653416
0.2765644,-0.7575673,-1.1322824,0.49686322,1.4277153,-0.9345197,0.44300666,0.31743217,-0.22363146,-0.5277162,-0.39527562,0.41184613
0.23531078,-0.75360024,-1.1062863,0.5089781,1.3809919,-0.92080504,0.42724377,0.31743217,-0.19392146,-0.5227329,-0.37992832,0.43528616
0.28687778,-0.73773175,-1.1114855,0.47869083,1.4160345,-0.91166186,0.4051757,0.32015228,-0.16421145,-0.51276624,-0.36458102,0.4634142
0.2765644,-0.72979754,-1.1010871,0.47869083,1.3926728,-0.90251875,0.39887056,0.33919328,-0.13450144,-0.50030786,-0.33081695,0.4962302
0.24562417,-0.709962,-1.0594932,0.47263336,1.3342686,-0.87508935,0.40202314,0.35007384,-0.13450144,-0.49283284,-0.30012238,0.5524863
0.42095205,-0.57111317,-0.9555087,0.3151394,1.3225876,-0.74708545,0.44615924,0.40175647,-0.15147859,-0.48286617,-0.27556673,0.6087424
0.48283252,-0.41242877,-0.7839342,0.1758178,1.1590558,-0.58250904,0.4650747,0.47792038,-0.15572289,-0.47289947,-0.2540805,0.64624643
0.68910056,-0.2815141,-0.71634424,0.012266356,1.1940984,-0.477363,0.43039632,0.4398384,-0.17694432,-0.47040778,-0.23566374,0.69312644
0.74066764,-0.24184297,-0.69034815,-0.030135868,1.1940984,-0.44079044,0.40832826,0.32015228,-0.18543288,-0.45296606,-0.21417755,0.7118785
0.7303542,-0.20613898,-0.6331566,-0.054365717,1.1240133,-0.39507478,0.38626027,0.2521488,-0.19392146,-0.45296606,-0.19269134,0.6790625
0.7509811,-0.27357987,-0.73714113,-0.011963488,1.2525026,-0.477363,0.36103964,0.23038769,-0.21938716,-0.44050774,-0.19269134,0.64624643
0.48283252,-0.5988829,-1.0282979,0.32119685,1.4277153,-0.7973727,0.33897159,0.21134672,-0.24909718,-0.49283284,-0.2632889,0.6134304
0.35907164,-0.84484375,-1.2934583,0.53926545,1.6613321,-1.0533805,0.31375095,0.17870505,-0.3085172,-0.57505804,-0.33081695,0.5759263
0.16311693,-0.9559229,-1.3350521,0.68464446,1.5912471,-1.1356686,0.29798806,0.1623842,-0.3085172,-0.62489146,-0.35537264,0.5477983
0.111549914,-0.99559397,-1.3610483,0.7270467,1.5912471,-1.1722413,0.27276742,0.14878349,-0.33398288,-0.68469167,-0.38299775,0.5102942
-0.115345016,-1.035265,-1.2986577,0.8239661,1.4043536,-1.1676697,0.25069937,0.15694392,-0.28729573,-0.6298748,-0.35537264,0.4727902
-0.17722544,-1.13841,-1.3974428,0.9208855,1.4744385,-1.2682443,0.23493649,0.15422377,-0.32125002,-0.69715,-0.41062292,0.43528616
-0.05346458,-0.96782416,-1.2414662,0.75733405,1.3693111,-1.1036677,0.20656328,0.15150364,-0.2660743,-0.61243314,-0.35537264,0.39309412
0.09092309,-1.2098179,-1.6314082,0.89665556,1.8832684,-1.4145342,0.19395296,0.15694392,-0.32125002,-0.7395084,-0.4842899,0.37434208
0.45189226,-1.6541344,-2.3956945,1.1328965,2.946226,-2.0088382,0.28853032,0.41535714,-0.07083715,-0.8715671,-0.7052909,0.31339803
1.411039,-0.16250077,-0.92431337,-0.29060668,1.8365449,-0.50022084,0.37049738,1.0056275,1.5801903,0.52626115,0.5869511,1.3213191
4.391613,3.2254117,2.0132499,-3.7554746,0.212907,2.7410204,-0.69192165,-0.48772916,2.8959188,3.62341,3.733146,4.166938
4.4741206,4.6218343,3.8017836,-4.8458176,-1.7377948,4.331926,-2.2556005,-3.4907632,0.8713944,4.520412,4.84429,5.160795
0.68910056,1.6068305,1.7584877,-1.4294093,-1.5859437,1.6987029,-2.2209222,-3.9178252,-3.1861432,0.5985196,1.415705,2.371432
-0.6619555,-1.1265086,-1.1426809,1.0541496,0.913758,-1.1493834,-1.212097,-2.2095776,-3.491732,-1.7237189,-1.0582786,0.35090208
-0.3112997,-1.1701468,-1.3766459,0.9875175,1.3693111,-1.2773874,-0.3829689,-0.7135008,-1.462963,-1.0634258,-0.79430515,0.32746205
-0.16691203,-1.1106402,-1.3714467,0.89665556,1.4510771,-1.2408148,0.06469724,0.029097356,-0.7329458,-0.9612673,-0.7083604,0.37434208
-0.0740914,-1.0987388,-1.4026423,0.86031085,1.5328429,-1.2453864,0.17819007,0.33103284,-0.2788072,-0.77439183,-0.585582,0.4634142
-0.012210959,-1.070969,-1.3974428,0.8239661,1.5678854,-1.2316716,0.20025814,0.42351758,-0.22363146,-0.7395084,-0.5395402,0.4634142
0.2765644,-1.0789033,-1.5482205,0.7452191,1.8949491,-1.3002452,0.20025814,0.45343915,-0.14723429,-0.71708333,-0.51805395,0.4634142
0.28687778,-1.035265,-1.5014274,0.70887434,1.8482257,-1.2545295,0.2191736,0.5268829,-0.03688286,-0.68219995,-0.46587315,0.49154225
0.3075046,-1.0471665,-1.5274236,0.7149318,1.8949491,-1.2728157,0.22863132,0.548644,-0.015661426,-0.6946584,-0.45973426,0.4821662
0.32813144,-1.0035282,-1.4858297,0.6664721,1.8599067,-1.2316716,0.23808905,0.59216624,0.039514296,-0.6448249,-0.40448397,0.4962302
0.37969843,-0.99956113,-1.5014274,0.64829975,1.9066299,-1.2362432,0.2633097,0.66561,0.086201444,-0.6622666,-0.4014145,0.5102942
0.42095205,-0.96782416,-1.4806305,0.6180124,1.9066299,-1.2088138,0.28537774,0.7499343,0.2220186,-0.6099415,-0.36765048,0.5431103
0.36938506,-0.9479886,-1.4286383,0.6180124,1.8131832,-1.1768129,0.3232087,0.86962044,0.3493472,-0.5900081,-0.35844207,0.5477983
0.34875822,-0.9321202,-1.3974428,0.611955,1.7664598,-1.1493834,0.3768025,1.0246685,0.5318515,-0.54266626,-0.3277475,0.5853023
0.36938506,-0.88054776,-1.3350521,0.5634953,1.7080556,-1.0945245,0.40202314,1.228679,0.7652872,-0.48286617,-0.31546968,0.59467834
0.5137727,-0.76550156,-1.2622631,0.43628863,1.7080556,-0.9985216,0.37995508,1.4925325,1.0920973,-0.40064096,-0.2694278,0.69312644
0.67878723,-0.5909487,-1.1166847,0.2545648,1.6379704,-0.82937366,0.35788706,1.63942,1.3764645,-0.28851572,-0.1589273,0.7915746
0.9366224,-0.37672475,-0.9659071,0.012266356,1.6146089,-0.6419394,0.33897159,1.6339797,1.575946,-0.1714071,0.0006845316,0.88064665
1.1119502,-0.12679677,-0.72674274,-0.22397462,1.4393961,-0.39050323,0.31059837,1.598618,1.635366,-0.05429852,0.19099095,1.0869188
1.3491585,0.091394305,-0.56036747,-0.46627307,1.3926728,-0.19392584,0.29483548,1.579577,1.5844345,0.0005182729,0.2615885,1.190055
1.6276205,0.19453919,-0.56556666,-0.6237671,1.5562044,-0.13449547,0.2601571,1.4870923,1.4571059,-0.024398452,0.23089391,1.190055
1.6791874,0.19057207,-0.60196126,-0.63588196,1.6262897,-0.15278174,0.20656328,1.2422796,1.2406473,-0.05429852,0.21861607,1.180679
1.3594718,0.055690315,-0.6123597,-0.44204322,1.4510771,-0.23506995,0.15612203,0.99474686,0.939303,-0.07921524,0.18792148,1.1525509
0.9159955,-0.13869812,-0.6435551,-0.15734255,1.2408217,-0.36307383,0.045781765,0.7635351,0.5827829,-0.15147375,0.06514316,1.0119108
0.6581604,-0.36085632,-0.8099304,0.08495588,1.2875451,-0.5642228,-0.033032697,0.57856554,0.29417148,-0.30097407,-0.0852603,0.8197026
0.317818,-0.5631789,-0.89831716,0.3333118,1.1940984,-0.71965605,-0.04879559,0.44799885,0.086201444,-0.4280494,-0.1896219,0.69312644
0.23531078,-0.6425211,-0.96070796,0.42417368,1.21746,-0.7928011,-0.07401621,0.36095437,-0.019905712,-0.48286617,-0.22645538,0.63218236
0.21468396,-0.69806063,-1.0230986,0.47263336,1.2758642,-0.8522315,-0.09293168,0.333753,-0.0878143,-0.52024126,-0.23873322,0.6181184
0.10123649,-0.709962,-0.9815048,0.51503557,1.1707367,-0.8385168,-0.114999734,0.29567105,-0.22787574,-0.552633,-0.26021942,0.5899903
0.008415851,-0.7575673,-0.99710256,0.57561016,1.1240133,-0.87508935,-0.1339152,0.28207034,-0.26183003,-0.5725664,-0.27556673,0.5618623
-0.21847907,-0.817074,-0.96070796,0.68464446,0.9604814,-0.8933756,-0.14337295,0.2657495,-0.24909718,-0.58004135,-0.2786362,0.5384223
-0.084404804,-0.7893042,-0.9919033,0.6301274,1.065609,-0.8933756,-0.14337295,0.2521488,-0.25758576,-0.58751637,-0.28477508,0.5477983
0.37969843,-0.7853371,-1.2206693,0.49080575,1.5912471,-0.9893785,-0.14337295,0.23310784,-0.24909718,-0.59748304,-0.29705292,0.5618623
0.49314588,-0.76946867,-1.2570639,0.44234604,1.6846939,-0.99395007,-0.14337295,0.22494742,-0.25758576,-0.60744977,-0.290914,0.5759263
0.37969843,-0.76550156,-1.1946731,0.47263336,1.5562044,-0.96652067,-0.14337295,0.23582798,-0.24485289,-0.6049581,-0.27556673,0.5899903
0.37969843,-0.74963313,-1.1738762,0.46051842,1.5445238,-0.94823444,-0.14337295,0.23310784,-0.22787574,-0.5900081,-0.26635835,0.59936637
0.3075046,-0.745666,-1.1374816,0.47869083,1.4510771,-0.9299481,-0.14337295,0.24942869,-0.21089861,-0.58004135,-0.26021942,0.6087424
0.2765644,-0.73773175,-1.1062863,0.48474827,1.3926728,-0.91166186,-0.14022036,0.24126825,-0.19816573,-0.5700747,-0.24180268,0.6228064
0.2765644,-0.7258305,-1.0854894,0.47263336,1.3809919,-0.8933756,-0.14337295,0.27935022,-0.17694432,-0.55512464,-0.23873322,0.6415584
0.19405715,-0.7178962,-1.0438955,0.49080575,1.2758642,-0.87508935,-0.14337295,0.2983912,-0.16845573,-0.5476496,-0.1957608,0.65093446
0.16311693,-0.5909487,-0.8515241,0.4060013,1.0539281,-0.7150845,-0.14337295,0.32015228,-0.16845573,-0.5027996,-0.12516326,0.66968644
0.35907164,-0.45606697,-0.7787349,0.24244986,1.0889708,-0.6053669,-0.14652552,0.4044766,-0.16845573,-0.44050774,-0.12209381,0.69781446
0.6581604,-0.36085632,-0.80473113,0.08495588,1.2758642,-0.5596512,-0.1339152,0.34463355,-0.16421145,-0.43552437,-0.12823273,0.7259425
0.72004086,-0.3211852,-0.7839342,0.0364962,1.2875451,-0.52765024,-0.20957708,0.22222728,-0.20241003,-0.4330327,-0.12823273,0.7400065
0.78192127,-0.313251,-0.80473113,0.012266356,1.3459494,-0.5322218,-0.2820864,0.15966405,-0.2788072,-0.44050774,-0.14664946,0.7025025
0.74066764,-0.313251,-0.7839342,0.024381278,1.299226,-0.5230787,-0.28523898,0.13790293,-0.28729573,-0.4280494,-0.13437165,0.6649984
0.45189226,-0.5592118,-0.9555087,0.29696703,1.3342686,-0.7425139,-0.29784927,0.12430224,-0.3042729,-0.51774955,-0.1589273,0.6415584
0.018729258,-0.8012056,-1.0594932,0.6058975,1.2057792,-0.9253766,-0.31991735,0.08894043,-0.32125002,-0.59997475,-0.20496917,0.59936637
-0.32161313,-0.8726135,-0.98670405,0.75733405,0.92543876,-0.9345197,-0.3230699,0.09438071,-0.3254943,-0.61741644,-0.21417755,0.5618623
0.08060969,-0.89641625,-1.2154701,0.66041464,1.4160345,-1.0488089,-0.36405346,0.07533973,-0.34671575,-0.70213336,-0.22645538,0.51967025
0.32813144,-0.86864644,-1.3038567,0.5695528,1.6496513,-1.0716667,-0.37981632,0.09438071,-0.28729573,-0.68469167,-0.20803864,0.4774782
0.317818,-0.9083175,-1.3506498,0.59984004,1.6963748,-1.1128109,-0.39557925,0.07805987,-0.35520434,-0.74449176,-0.25714996,0.43528616
0.25593758,-0.84881085,-1.2414662,0.57561016,1.5445238,-1.0350941,-0.4018844,0.09166057,-0.2703186,-0.68967503,-0.19883026,0.39778212
0.13217671,-1.1979166,-1.6366073,0.87848324,1.9183109,-1.4099628,-0.39242664,0.07805987,-0.37642574,-0.8092752,-0.3430948,0.38840613
0.22499737,-1.5073513,-2.0837407,1.0844369,2.4673107,-1.7848312,-0.44286793,0.3881558,0.06498001,-0.78934187,-0.4842899,0.33215007
1.7616947,0.26594716,-0.5395705,-0.72068644,1.6029279,-0.08420822,-0.3829689,1.0001872,2.0173516,0.8327368,1.0995506,1.6307275
5.1238647,3.6538596,2.2056212,-4.2945886,0.42316225,3.0747447,-1.489524,-0.80326533,3.3712792,3.9099522,4.328621,4.6263623
4.195658,4.4353805,3.6977992,-4.621691,-1.7845182,4.181064,-2.9523203,-3.6920533,0.969013,4.0768943,4.7675533,5.029531
0.35907164,1.2220207,1.4205381,-1.0356743,-1.39905,1.328406,-2.6843512,-3.7600567,-3.1564333,0.08274346,1.1271758,2.113592
-0.6825823,-1.0828705,-1.0750909,1.0238624,0.8203112,-1.0945245,-1.6849837,-2.0708504,-3.122479,-1.6290354,-0.8771805,0.49154225
-0.4763142,-0.98765975,-1.054294,0.8905982,0.913758,-1.0305226,-0.9031444,-0.6672584,-1.2889472,-0.98369235,-0.5763737,0.4071581
-0.10503161,-0.8924491,-1.1218839,0.7149318,1.2057792,-1.0076648,-0.5973443,0.018216796,-0.69899154,-0.879042,-0.49963722,0.31808606
0.08060969,-0.88451487,-1.1946731,0.6543572,1.3809919,-1.0350941,-0.53114015,0.23310784,-0.28729573,-0.69964164,-0.38299775,0.38371813
0.09092309,-0.88054776,-1.1998724,0.64829975,1.4043536,-1.0350941,-0.49015662,0.3011113,-0.2406086,-0.7295418,-0.37685886,0.3790301
0.12186332,-0.888482,-1.2258685,0.64829975,1.4393961,-1.0488089,-0.5153772,0.3473537,-0.12176859,-0.68967503,-0.33388644,0.41184613
0.08060969,-0.87658066,-1.1894739,0.64829975,1.3809919,-1.025951,-0.49646178,0.3881558,-0.09630287,-0.67472494,-0.31853914,0.43059817
0.13217671,-0.888482,-1.2258685,0.64224225,1.4510771,-1.0488089,-0.50907207,0.450719,-0.058104288,-0.6697416,-0.31240022,0.43528616
0.16311693,-0.84881085,-1.1946731,0.59984004,1.4393961,-1.0122364,-0.5027669,0.50512177,0.005560006,-0.6373499,-0.2786362,0.45872617
0.19405715,-0.8329424,-1.1894739,0.58166766,1.4510771,-1.0030932,-0.487004,0.5731253,0.043758582,-0.63984156,-0.2786362,0.4634142
0.19405715,-0.79723847,-1.1426809,0.55138034,1.4043536,-0.9619491,-0.4460205,0.6710503,0.14986573,-0.6024664,-0.24794158,0.48685423
0.20437056,-0.7774029,-1.1218839,0.53320795,1.3809919,-0.93909127,-0.40818954,0.7716955,0.29417148,-0.6024664,-0.22952484,0.4821662
0.22499737,-0.745666,-1.0906886,0.5029207,1.3576301,-0.9070903,-0.39557925,0.95938516,0.49789724,-0.5650913,-0.19269134,0.5149822
0.25593758,-0.709962,-1.0594932,0.4665759,1.3459494,-0.87051773,-0.38612148,1.1878768,0.7483101,-0.51774955,-0.16506623,0.5431103
0.42095205,-0.5750803,-0.9659071,0.3151394,1.3225876,-0.7562286,-0.37981632,1.4163685,1.0708759,-0.42057434,-0.091399215,0.5712383
0.5653397,-0.36482343,-0.7579381,0.11524319,1.1707367,-0.5413649,-0.367206,1.5958977,1.3807088,-0.28602403,0.028309654,0.6884385
0.61690676,-0.13869812,-0.49277753,-0.0725381,0.90207714,-0.29907185,-0.36405346,1.6366999,1.5504802,-0.14898206,0.19712988,0.8525186
0.8644285,0.1270983,-0.26921073,-0.35118127,0.78526866,-0.04763569,-0.36090085,1.582297,1.4868159,-0.03187347,0.36901954,1.0306629
1.3285317,0.3651249,-0.19122232,-0.6722267,0.9604814,0.12608387,-0.37351117,1.5251741,1.4740831,0.022943322,0.47645056,1.133799
1.6998143,0.5039738,-0.19642155,-0.8842379,1.1824174,0.19922893,-0.4460205,1.3918873,1.4316403,0.057826735,0.5286313,1.1291109
1.5451132,0.44050002,-0.19642155,-0.79337597,1.0889708,0.16722795,-0.5122247,1.1389143,1.1854717,0.060318407,0.5071451,1.1103588
1.0706966,0.26991427,-0.18602309,-0.5207902,0.8086303,0.07122506,-0.56266594,0.88866144,0.86290586,-0.034365144,0.39357516,1.0306629
0.70972747,0.055690315,-0.2848084,-0.24820445,0.71518344,-0.08877979,-0.60680205,0.6574496,0.49365294,-0.18635716,0.2554496,0.8759586
0.60659343,-0.17043498,-0.52397287,-0.048308257,0.93711966,-0.32650128,-0.64463294,0.46703982,0.20928575,-0.33336583,0.13881016,0.7118785
0.43126547,-0.36879054,-0.70074654,0.15764542,1.0305665,-0.51850706,-0.70137936,0.36095437,0.005560006,-0.43801606,0.0068234485,0.6087424
0.23531078,-0.4719354,-0.731942,0.29090956,0.9604814,-0.59165215,-0.7297526,0.2575891,-0.18543288,-0.5152579,-0.07912139,0.5853023
0.21468396,-0.48383674,-0.7423404,0.30908194,0.9604814,-0.6053669,-0.7392103,0.19502588,-0.28729573,-0.5650913,-0.094468676,0.5665503
0.20437056,-0.50763935,-0.76313734,0.32725433,0.983843,-0.6282247,-0.7518206,0.18142518,-0.33398288,-0.5775497,-0.10981598,0.5431103
0.20437056,-0.5235078,-0.7839342,0.33936927,0.9955239,-0.646511,-0.76127833,0.16782448,-0.36793718,-0.5775497,-0.12516326,0.5243583
0.17343034,-0.53937626,-0.7943327,0.3635991,0.9955239,-0.66022563,-0.7738887,0.15422377,-0.39764717,-0.6024664,-0.14664946,0.5009182
0.12186332,-0.5592118,-0.7891334,0.3938864,0.9604814,-0.6693688,-0.7833464,0.1351828,-0.40189147,-0.6348582,-0.15278839,0.4821662
0.10123649,-0.56714606,-0.7943327,0.4060013,0.9488005,-0.67394036,-0.7928041,0.12974252,-0.40189147,-0.6348582,-0.14051056,0.4540382
0.10123649,-0.56714606,-0.7891334,0.4060013,0.9488005,-0.67394036,-0.8022619,0.14062308,-0.4188686,-0.63236654,-0.14051056,0.4399742
0.10123649,-0.56714606,-0.7943327,0.4060013,0.9488005,-0.67394036,-0.8117196,0.14606336,-0.4273572,-0.6348582,-0.14051056,0.41653416
0.111549914,-0.56714606,-0.7943327,0.4060013,0.9488005,-0.67394036,-0.8211773,0.15694392,-0.4188686,-0.6348582,-0.14051056,0.39309412
0.04966947,-0.57111317,-0.7735357,0.42417368,0.89039624,-0.6693688,-0.8211773,0.1623842,-0.40189147,-0.6298748,-0.14358002,0.4071581
0.07029628,-0.5274749,-0.731942,0.38177145,0.8670346,-0.6236532,-0.8180248,0.17054461,-0.40189147,-0.61741644,-0.12823273,0.44935018
0.111549914,-0.48780385,-0.69034815,0.33936927,0.8436728,-0.58250904,-0.8211773,0.1759849,-0.3934029,-0.6024664,-0.106746525,0.4634142
0.24562417,-0.40846166,-0.65915275,0.24244986,0.87871546,-0.52765024,-0.8211773,0.18414532,-0.37642574,-0.59997475,-0.0852603,0.50560623
0.37969843,-0.24581009,-0.5135744,0.07889842,0.79694945,-0.36764538,-0.8211773,0.2439884,-0.38067004,-0.5227329,-0.06991301,0.51967025
0.49314588,-0.13869812,-0.43038678,-0.03619333,0.7619069,-0.26707092,-0.8211773,0.28207034,-0.3934029,-0.44549108,-0.042287886,0.5524863
0.67878723,-0.063323006,-0.42518756,-0.15128508,0.8670346,-0.22135524,-0.83063513,0.21950714,-0.4273572,-0.4629328,-0.03921843,0.64624643
0.7922347,-0.027619014,-0.43558604,-0.21185969,0.93711966,-0.20764056,-0.89683926,0.105261266,-0.44009003,-0.48286617,-0.057635173,0.6274944
1.0603832,0.083460085,-0.4199883,-0.36935365,1.065609,-0.13449547,-0.9725011,0.037257776,-0.47828862,-0.4978162,-0.0852603,0.5899903
0.699414,-0.08315855,-0.46158212,-0.13917017,0.92543876,-0.24878466,-0.9851115,0.039977916,-0.4825329,-0.5077829,-0.097538136,0.5618623
0.46220568,-0.44416562,-0.8151295,0.20004764,1.1824174,-0.61451,-0.9693486,0.029097356,-0.4867772,-0.5949914,-0.13437165,0.52904624
0.5653397,-0.46003407,-0.8879187,0.18187526,1.3225876,-0.65565413,-1.0008743,0.012776517,-0.5419529,-0.6448249,-0.22338592,0.48685423
-0.043151174,-0.674258,-0.85672337,0.5271505,0.93711966,-0.7653717,-1.0513155,0.015496658,-0.6268387,-0.71708333,-0.2694278,0.4399742
-0.13597183,-0.7416989,-0.9035164,0.6058975,0.9488005,-0.8248021,-1.063926,-0.017145019,-0.6225944,-0.7395084,-0.30319184,0.4071581
0.17343034,-0.60285,-0.8775203,0.41205877,1.0889708,-0.7333707,-1.0481629,0.007336239,-0.57590723,-0.71459174,-0.34616426,0.35559008
0.23531078,-0.62268555,-0.93471175,0.4060013,1.1824174,-0.7653717,-1.063926,-0.038906135,-0.6141058,-0.74200016,-0.3430948,0.33215007
0.16311693,-0.5274749,-0.7787349,0.35754162,0.9721622,-0.646511,-1.0544682,-0.0008241804,-0.49951005,-0.6597749,-0.2632889,0.30871004
0.03935606,-1.0154295,-1.3558491,0.76339155,1.5445238,-1.1813843,-1.0324001,0.023657078,-0.63108295,-0.9313672,-0.54260963,0.13056585
0.35907164,-1.0154295,-1.5118259,0.6725296,1.8949491,-1.2453864,-0.8873815,0.5187225,0.15835431,-0.6622666,-0.4535953,0.21026194
2.7002144,1.4124421,0.48987636,-1.8716038,0.9721622,1.0266826,-1.070231,0.839699,2.3866045,1.5279135,1.771762,2.202664
5.4745207,4.601999,3.2766619,-5.1244607,-0.5813907,4.0896325,-2.5393326,-1.6111468,3.150576,4.3584533,4.7859697,5.052971
3.3602724,4.090242,3.6614048,-4.112865,-2.2050288,3.9662,-3.6049044,-4.067433,-0.36793718,3.0652754,3.8497853,4.274762
-0.23910587,0.60315156,0.9110137,-0.39358354,-1.165433,0.74781704,-3.0090668,-3.42548,-3.9034278,-0.8665837,0.14494908,1.1994311
-0.7547762,-0.7853371,-0.6487543,0.8239661,0.30635378,-0.73794234,-2.012852,-1.7090719,-2.8635776,-1.5218935,-0.953917,0.1774459
-0.5381946,-0.63855404,-0.56556666,0.64224225,0.3297155,-0.61451,-1.3508105,-0.5149306,-1.3356345,-0.9687423,-0.63776284,0.25714198
-0.34223995,-0.6861594,-0.72674274,0.62406987,0.6217367,-0.7150845,-1.123825,-0.047066554,-0.8135873,-0.9114338,-0.59785986,0.21026194
-0.115345016,-0.61078423,-0.7423404,0.5029207,0.77358776,-0.678512,-1.0324001,0.09438071,-0.4867772,-0.7719002,-0.4842899,0.24307796
-0.05346458,-0.61475134,-0.7787349,0.48474827,0.8436728,-0.6967982,-0.988264,0.2031863,-0.4867772,-0.82671696,-0.51805395,0.21963795
0.018729258,-0.5750803,-0.76313734,0.43628863,0.8670346,-0.66479725,-0.988264,0.25486895,-0.36369288,-0.7644252,-0.46280372,0.23370196
0.07029628,-0.5592118,-0.76833653,0.4060013,0.90207714,-0.66022563,-0.9598908,0.30927175,-0.36369288,-0.7818669,-0.46280372,0.22432594
0.14249012,-0.53144205,-0.76833653,0.3635991,0.9488005,-0.646511,-0.9504331,0.33647314,-0.28305143,-0.7519668,-0.43210912,0.22901396
0.21468396,-0.4997052,-0.76313734,0.32119685,0.983843,-0.6236532,-0.92836505,0.39903632,-0.24485289,-0.74449176,-0.40448397,0.22901396
0.28687778,-0.47986963,-0.7735357,0.28485212,1.0305665,-0.61451,-0.9094495,0.47520024,-0.15572289,-0.72705007,-0.38606724,0.22901396
0.32813144,-0.44813275,-0.7579381,0.24850734,1.0422473,-0.59165215,-0.8810764,0.5404836,-0.032638572,-0.69964164,-0.35230318,0.22901396
0.5447129,-0.4243301,-0.8359265,0.16370288,1.2525026,-0.60993844,-0.84955055,0.6900913,0.10317858,-0.67472494,-0.34002534,0.24307796
0.61690676,-0.37275764,-0.7995319,0.10918573,1.2525026,-0.5642228,-0.8432454,0.8832212,0.29417148,-0.60744977,-0.3062613,0.25714198
0.4106387,-0.3211852,-0.6279574,0.12735811,0.93711966,-0.46364832,-0.85270315,1.1225935,0.59127146,-0.5277162,-0.29398346,0.25245398
0.4415789,-0.20217188,-0.48757827,0.024381278,0.79694945,-0.33107284,-0.84955055,1.3483651,0.9265701,-0.42306602,-0.22338592,0.34152606
0.6684738,0.031887647,-0.29520687,-0.21791714,0.70350266,-0.11163763,-0.85270315,1.4816519,1.1939603,-0.32090744,-0.0852603,0.4774782
0.977876,0.26991427,-0.13923006,-0.49050292,0.70350266,0.09408289,-0.85270315,1.5115736,1.3849531,-0.18386547,0.09583775,0.6649984
1.2357111,0.52777654,0.068739004,-0.7691461,0.6217367,0.3318044,-0.85270315,1.4707713,1.3382659,-0.041840162,0.24624121,0.7915746
1.1016369,0.7499347,0.42748564,-0.89635277,0.14282192,0.6152416,-0.8810764,1.3918873,1.2915788,0.01795998,0.2707969,0.7915746
1.2253977,0.7816716,0.40668872,-0.9569274,0.22458784,0.62895626,-0.92205983,1.2069178,1.2024487,0.0055016177,0.2401023,0.7775105
1.1944574,0.67852664,0.28710654,-0.87212294,0.3530772,0.5146671,-0.9945692,0.9430643,0.909593,-0.006956744,0.23396337,0.76813453
0.8644285,0.5000067,0.21951659,-0.63588196,0.2362687,0.3820916,-1.0513155,0.69553155,0.55731726,-0.10911531,0.17564365,0.75875854
0.81286144,0.27784848,-0.045643985,-0.4481007,0.5049282,0.13979857,-1.0796888,0.4806405,0.2220186,-0.26858234,0.019101283,0.6040544
0.5653397,0.035854757,-0.23801537,-0.19368729,0.5866942,-0.08420822,-1.1017568,0.3065516,-0.066592865,-0.38319924,-0.10981598,0.44935018
0.28687778,-0.13869812,-0.32640222,0.024381278,0.5282899,-0.22135524,-1.1175197,0.19774602,-0.2745629,-0.47539115,-0.17120515,0.4071581
0.059982877,-0.23390877,-0.3368007,0.16370288,0.41148144,-0.28078562,-1.1364353,0.116141826,-0.38491434,-0.5401746,-0.2111081,0.3462141
0.18374375,-0.277547,-0.45638293,0.15764542,0.6217367,-0.35850227,-1.1553507,0.053578608,-0.4316015,-0.5775497,-0.23566374,0.29933405
0.04966947,-0.32515234,-0.4511837,0.23639242,0.53997076,-0.38593164,-1.1837239,0.026377218,-0.47404432,-0.6024664,-0.26021942,0.26183
-0.2906729,-0.40846166,-0.38879296,0.39994383,0.27131125,-0.40421793,-1.205792,-0.0008241804,-0.49951005,-0.62489146,-0.2786362,0.23370196
0.10123649,-0.3965603,-0.5707659,0.27273718,0.70350266,-0.477363,-1.2215548,-0.030745717,-0.49102148,-0.6298748,-0.29398346,0.20088592
0.23531078,-0.37275764,-0.6071605,0.21216257,0.8203112,-0.477363,-1.2341652,-0.036185995,-0.47828862,-0.61990815,-0.30319184,0.1680699
0.14249012,-0.36085632,-0.54476976,0.23639242,0.6918218,-0.4499336,-1.2530806,-0.036185995,-0.46980006,-0.6223998,-0.31853914,0.13994186
0.17343034,-0.33705366,-0.52397287,0.2061051,0.6918218,-0.42707577,-1.2593857,-0.036185995,-0.4528229,-0.6223998,-0.32467803,0.13525386
0.111549914,-0.32515234,-0.48757827,0.21822004,0.61005586,-0.39964634,-1.249928,-0.038906135,-0.44433433,-0.6223998,-0.3277475,0.13525386
0.13217671,-0.29341546,-0.4511837,0.18793271,0.5750133,-0.36764538,-1.2404703,-0.033465855,-0.43584573,-0.6223998,-0.32467803,0.13525386
0.36938506,-0.26564568,-0.5343713,0.097070806,0.8086303,-0.38593164,-1.2310125,-0.030745717,-0.41462433,-0.6049581,-0.3277475,0.13525386
0.42095205,-0.24184297,-0.5343713,0.06678351,0.8436728,-0.37221694,-1.2215548,-0.0008241804,-0.40189147,-0.58004135,-0.3216086,0.13525386
0.22499737,-0.18630344,-0.35239837,0.07889842,0.5282899,-0.26249936,-1.212097,0.020936936,-0.38491434,-0.560108,-0.27556673,0.13994186
0.18374375,-0.09505989,-0.21721846,0.018323816,0.3530772,-0.14821018,-1.2247075,0.037257776,-0.37218145,-0.5401746,-0.19883026,0.15400587
0.34875822,0.083460085,-0.06644089,-0.16340001,0.27131125,0.016366249,-1.2404703,0.1351828,-0.35096005,-0.5277162,-0.094468676,0.266518
0.5447129,0.20644051,0.001149056,-0.31483653,0.30635378,0.11694073,-1.2593857,0.059018888,-0.37642574,-0.51774955,-0.0852603,0.29464602
0.4725191,0.24214453,0.07913746,-0.32695144,0.17786445,0.17179953,-1.2783012,-0.10690963,-0.4316015,-0.5027996,-0.11595489,0.25245398
0.36938506,0.21040763,0.08433668,-0.2724343,0.10777937,0.15351327,-1.2972168,-0.15587214,-0.4570672,-0.50030786,-0.14358002,0.23838995
0.4725191,0.107262745,-0.09763625,-0.21791714,0.37643886,0.016366249,-1.3350477,-0.18851382,-0.4273572,-0.47539115,-0.16506623,0.20088592
0.40032527,-0.12679677,-0.36799604,-0.018020948,0.63341755,-0.23506995,-1.3476579,-0.19123393,-0.4867772,-0.5850247,-0.20803864,0.18682191
0.15280353,-0.37672475,-0.5707659,0.24244986,0.72686434,-0.46364832,-1.3760312,-0.21843535,-0.60137296,-0.66725,-0.30319184,0.12587784
0.17343034,-0.3965603,-0.6071605,0.2545648,0.78526866,-0.49564928,-1.3791838,-0.19123393,-0.5843958,-0.6871833,-0.3216086,0.03211775
0.25593758,-0.4719354,-0.7475396,0.28485212,0.9955239,-0.60079527,-1.4138621,-0.21027493,-0.6098615,-0.7121001,-0.33388644,-0.010074293
0.19405715,-0.50763935,-0.76313734,0.32725433,0.9721622,-0.6236532,-1.3949467,-0.18851382,-0.56741863,-0.6597749,-0.30933076,-0.04289033
0.19405715,-0.5116065,-0.76833653,0.3333118,0.9721622,-0.6282247,-1.4107095,-0.19123393,-0.6268387,-0.71708333,-0.34923372,-0.08977038
0.23531078,-0.40052742,-0.63835585,0.23639242,0.8553537,-0.50936395,-1.4044044,-0.18851382,-0.53770864,-0.61243314,-0.28477508,-0.1085224
0.14249012,-0.76550156,-1.0802901,0.5453229,1.299226,-0.9162335,-1.3917941,-0.15043186,-0.5928844,-0.86160034,-0.4535953,-0.16477846
0.18374375,-1.102706,-1.5430212,0.7876213,1.8365449,-1.3139598,-1.4359303,0.14878349,-0.13874574,-0.8317003,-0.56102633,-0.23041052
2.0298433,0.95622444,0.22991504,-1.3264326,0.89039624,0.6518141,-1.4044044,0.51328224,1.7457175,1.0245956,1.2346069,1.204119
5.000104,4.3362026,3.162279,-4.7791853,-0.7215609,3.8839123,-2.6591306,-1.5077815,2.615796,4.1067944,4.4176354,4.1059937
3.6181078,4.657539,4.2801127,-4.6156335,-2.7540286,4.560504,-3.9642982,-4.181679,-0.18967716,3.827727,4.408427,4.09193
-0.10503161,1.2934288,1.7480893,-0.9569274,-2.029816,1.5112686,-3.5607681,-3.9695077,-3.8312747,-0.3433325,0.65447915,1.0072228
-0.55882144,-0.76153445,-0.7215435,0.7452191,0.49324736,-0.7562286,-2.602384,-2.2476594,-3.2752733,-1.7436523,-1.0582786,-0.44137073
-0.19785225,-0.6623567,-0.7735357,0.5695528,0.7619069,-0.71965605,-1.8079344,-0.9093508,-1.4374973,-1.0609342,-0.6500406,-0.36636266
-0.20816565,-0.6901265,-0.7995319,0.59378254,0.78526866,-0.75165707,-1.5210497,-0.32996106,-0.868763,-0.9737257,-0.5671653,-0.36636266
-0.05346458,-0.6306198,-0.7995319,0.49686322,0.8670346,-0.7150845,-1.4138621,-0.10146935,-0.44433433,-0.78435856,-0.4566648,-0.28197858
-0.03283777,-0.61078423,-0.7839342,0.47869083,0.8553537,-0.6922266,-1.3602682,-0.0008241804,-0.41038004,-0.8292087,-0.47201207,-0.27260256
0.08060969,-0.5869816,-0.8099304,0.43023115,0.9604814,-0.6967982,-1.3728786,0.037257776,-0.29154003,-0.77688354,-0.41676185,-0.25385055
0.059982877,-0.5552447,-0.7579381,0.4060013,0.89039624,-0.6510826,-1.331895,0.06717931,-0.25758576,-0.7818669,-0.4014145,-0.24447455
0.059982877,-0.55127764,-0.75273883,0.4060013,0.87871546,-0.646511,-1.331895,0.06717931,-0.22787574,-0.7644252,-0.3891367,-0.23041052
0.03935606,-0.5116065,-0.69034815,0.38177145,0.79694945,-0.5962237,-1.3066745,0.1351828,-0.14299001,-0.74200016,-0.36765048,-0.21634652
0.03935606,-0.50367224,-0.6799497,0.375714,0.79694945,-0.59165215,-1.287759,0.17870505,-0.024149999,-0.74449176,-0.36458102,-0.2069705
-0.0018975561,-0.4719354,-0.61755896,0.3635991,0.6918218,-0.5413649,-1.249928,0.3011113,0.15411003,-0.7096084,-0.34002534,-0.17415448
0.13217671,-0.44416562,-0.6487543,0.29696703,0.8086303,-0.5413649,-1.2089444,0.42623773,0.19655289,-0.7121001,-0.33081695,-0.15540245
0.39001185,-0.3925932,-0.7059458,0.18793271,1.0188856,-0.53679335,-1.1774187,0.5540843,0.3620801,-0.6373499,-0.28170562,-0.12727441
0.43126547,-0.33308655,-0.65395355,0.12735811,0.983843,-0.477363,-1.1648084,0.80705726,0.68889004,-0.567583,-0.24487214,-0.09914639
0.60659343,-0.20613898,-0.5759651,-0.02407841,0.9955239,-0.37221694,-1.145893,1.0083476,0.99023443,-0.48535782,-0.1589273,-0.080394365
0.64784706,-0.06729012,-0.4147891,-0.13917017,0.83199203,-0.21678367,-1.1332827,1.1117129,1.266113,-0.33336583,-0.020801676,0.02274174
0.80254805,0.18660496,-0.15482776,-0.37541112,0.6217367,0.039224084,-1.1017568,1.1035526,1.4655945,-0.19632384,0.15108798,0.19150992
1.0913235,0.5079409,0.11553204,-0.714629,0.48156655,0.34094754,-1.145893,1.0681907,1.516526,-0.08669026,0.29535255,0.30871004
1.1532038,0.690428,0.31830192,-0.8660655,0.29467294,0.53752494,-1.2404703,1.0518699,1.4528617,0.0030099454,0.38129738,0.3790301
1.3800987,0.7816716,0.32870036,-1.0053871,0.39980057,0.5969553,-1.2814537,0.94034415,1.3000673,-0.0094484165,0.43347818,0.36027807
1.3182182,0.71026355,0.26630962,-0.9326976,0.44652396,0.5238102,-1.3665735,0.72273296,1.0496545,-0.04433183,0.38743627,0.31339803
1.0294429,0.5238094,0.17272355,-0.702514,0.38811973,0.37752005,-1.4107095,0.4915211,0.72284436,-0.10662364,0.2769358,0.24307796
0.85411507,0.29768404,-0.040444758,-0.47838795,0.5282899,0.15351327,-1.4327775,0.29023075,0.4130115,-0.24117394,0.13267124,0.06962179
0.5447129,0.06362453,-0.19122232,-0.20580222,0.5166091,-0.04763569,-1.4611508,0.121582106,0.14562145,-0.40811598,-0.008523844,-0.07570636
0.35907164,-0.055388786,-0.25361305,-0.06648063,0.49324736,-0.13906702,-1.4643034,-0.00354432,-0.07083715,-0.5277162,-0.100607604,-0.17884247
0.24562417,-0.12282967,-0.29000762,0.024381278,0.46988568,-0.19849741,-1.4706085,-0.093308926,-0.19392146,-0.57505804,-0.16199677,-0.25385055
-0.10503161,-0.27357987,-0.30560532,0.24244986,0.2829921,-0.28992873,-1.4737611,-0.120510325,-0.24909718,-0.6024664,-0.19269134,-0.28666657
-0.23910587,-0.34498787,-0.32640222,0.33936927,0.22458784,-0.34021598,-1.489524,-0.11779019,-0.2703186,-0.6223998,-0.22338592,-0.30541858
-0.15659863,-0.3211852,-0.34199995,0.29090956,0.29467294,-0.3356444,-1.4706085,-0.11779019,-0.28305143,-0.6423332,-0.24794158,-0.31479463
-0.17722544,-0.34498787,-0.36799604,0.3151394,0.31803462,-0.36307383,-1.511592,-0.11779019,-0.2957843,-0.6473165,-0.27249727,-0.33354664
-0.15659863,-0.34895498,-0.3783945,0.3151394,0.34139633,-0.36764538,-1.593559,-0.11779019,-0.3085172,-0.6473165,-0.2786362,-0.35698664
-0.19785225,-0.34498787,-0.35239837,0.32119685,0.2829921,-0.35393068,-1.6030167,-0.11234991,-0.32125002,-0.6473165,-0.2786362,-0.34761065
-0.16691203,-0.33308655,-0.35239837,0.30302447,0.29467294,-0.3493591,-1.6597632,-0.104189485,-0.3085172,-0.6473165,-0.290914,-0.3288586
-0.115345016,-0.30928388,-0.34719914,0.27273718,0.3297155,-0.33107284,-1.6944416,-0.09602907,-0.2788072,-0.6473165,-0.29705292,-0.33354664
-0.16691203,-0.30928388,-0.32120302,0.29090956,0.27131125,-0.32192972,-1.7102044,-0.08786865,-0.24909718,-0.6348582,-0.29398346,-0.33354664
-0.06377799,-0.2815141,-0.3368007,0.23639242,0.34139633,-0.30821502,-1.7890188,-0.076988086,-0.22363146,-0.61990815,-0.2632889,-0.33354664
-0.13597183,-0.2815141,-0.30040607,0.2545648,0.27131125,-0.29450032,-1.817392,-0.076988086,-0.18967716,-0.6024664,-0.21417755,-0.33354664
-0.15659863,-0.22994165,-0.2224177,0.2242775,0.16618359,-0.23049839,-1.8110869,-0.060667254,-0.17270002,-0.5900081,-0.18041351,-0.3101066
-0.09471821,-0.055388786,-0.024847079,0.07284097,-0.020709965,-0.04306412,-1.817392,-0.055226974,-0.18543288,-0.57505804,-0.14971894,-0.2913546
-0.05346458,0.13503252,0.20391892,-0.090710476,-0.25432694,0.16265638,-1.8110869,-0.033465855,-0.19392146,-0.56259966,-0.11595489,-0.27729058
0.3075046,0.32942092,0.27670807,-0.34512383,-0.1491993,0.3135181,-1.817392,-0.063387394,-0.18543288,-0.55014133,-0.091399215,-0.26322654
0.42095205,0.37305915,0.27670807,-0.4117559,-0.079114206,0.33637595,-1.8300023,-0.18307352,-0.21938716,-0.53020793,-0.0852603,-0.23978654
0.6375336,0.3889276,0.18832123,-0.48444545,0.14282192,0.304375,-1.8268498,-0.23475617,-0.3042729,-0.53020793,-0.10367706,-0.24916254
0.5447129,0.19453919,-0.019647852,-0.30272162,0.3297155,0.10322603,-1.8331549,-0.22387561,-0.28729573,-0.50030786,-0.08219084,-0.27260256
0.111549914,-0.277547,-0.42518756,0.18187526,0.53997076,-0.34478757,-1.8205447,-0.22659576,-0.3085172,-0.59249973,-0.12209381,-0.28666657
0.059982877,-0.37672475,-0.52397287,0.27273718,0.63341755,-0.4499336,-1.8520705,-0.2293159,-0.31276146,-0.6522999,-0.18348297,-0.3288586
-0.13597183,-0.4282972,-0.49277753,0.3635991,0.48156655,-0.46364832,-1.9119694,-0.22115548,-0.31700575,-0.6871833,-0.22031647,-0.3944907
-0.13597183,-0.45606697,-0.52397287,0.38782892,0.5166091,-0.4910777,-1.9970891,-0.23203604,-0.31276146,-0.6921667,-0.23566374,-0.4132427
-0.19785225,-0.44416562,-0.48237905,0.3938864,0.43484312,-0.46364832,-2.0002418,-0.19123393,-0.24909718,-0.68469167,-0.24180268,-0.43199474
-0.24941927,-0.5195407,-0.5551682,0.47263336,0.48156655,-0.5413649,-2.0286148,-0.21027493,-0.2745629,-0.7370168,-0.29398346,-0.46012273
-0.10503161,-0.41242877,-0.48757827,0.3454267,0.48156655,-0.4499336,-1.9277323,-0.1667527,-0.14299001,-0.6498082,-0.22645538,-0.46481076
-0.10503161,-0.98369265,-1.2310677,0.7815639,1.3225876,-1.1082393,-1.8016292,-0.115070045,-0.2660743,-0.9413339,-0.49963722,-0.60545087
0.111549914,-0.8210411,-1.1270832,0.59378254,1.3342686,-0.96652067,-1.7385776,0.32015228,0.5148744,-0.5775497,-0.29705292,-0.46012273
2.1948576,1.7932848,1.2437643,-2.016983,-0.16088015,1.5798421,-1.6629157,0.2031863,2.1489246,1.6998388,1.9528601,1.4150792
4.3812995,4.959039,4.285312,-5.0760007,-2.333518,4.738795,-2.6465201,-2.4625506,1.8348475,4.6200786,4.8534985,3.8950338
2.0298433,4.423479,4.76884,-3.9735432,-4.214134,4.642792,-3.2707307,-4.5325766,-1.5690702,3.2446759,3.8037434,2.985561
-0.7650895,0.64282274,1.2281666,-0.26637682,-1.8195606,0.90782183,-2.356483,-3.5723674,-4.018023,-1.0434924,-0.023871137,0.046181764
-0.6619555,-0.7893042,-0.70074654,0.79973626,0.41148144,-0.7608001,-1.2152497,-1.8260378,-2.4985688,-1.624052,-1.0091673,-0.8398511
-0.37318015,-0.47590253,-0.43558604,0.47869083,0.2829921,-0.46821985,-0.56266594,-0.66181815,-0.9663816,-0.9338589,-0.5364707,-0.6288909
-0.2803595,-0.5631789,-0.596762,0.51503557,0.5049282,-0.58708066,-0.44286793,-0.17763326,-0.44857863,-0.8840254,-0.5149845,-0.6148269
-0.4763142,-0.5631789,-0.49797672,0.5695528,0.29467294,-0.5413649,-0.42079988,-0.036185995,-0.09630287,-0.6797083,-0.43824804,-0.5632588
-0.46600077,-0.60285,-0.5551682,0.59984004,0.36475804,-0.59165215,-0.42710504,0.059018888,-0.058104288,-0.71708333,-0.46587315,-0.5491949
-0.32161313,-0.5235078,-0.52397287,0.49686322,0.41148144,-0.5322218,-0.42710504,0.11886196,0.07346858,-0.6223998,-0.41062292,-0.5023148
-0.3112997,-0.50367224,-0.503176,0.47263336,0.38811973,-0.50936395,-0.48385143,0.1623842,0.04800287,-0.6448249,-0.41369238,-0.4835628
-0.16691203,-0.46400118,-0.5187736,0.4060013,0.49324736,-0.49564928,-0.5342927,0.19230574,0.12440003,-0.6049581,-0.38606724,-0.45543477
-0.17722544,-0.4362314,-0.48237905,0.38177145,0.44652396,-0.46364832,-0.5122247,0.23310784,0.12440003,-0.5900081,-0.38299775,-0.43668276
-0.10503161,-0.41639584,-0.49277753,0.35148418,0.49324736,-0.45450515,-0.52483493,0.2929509,0.2220186,-0.58004135,-0.3891367,-0.4273067
-0.043151174,-0.3806919,-0.4771798,0.30908194,0.5049282,-0.42707577,-0.51852983,0.37999535,0.40876722,-0.53768295,-0.36765048,-0.4038667
-0.022524366,-0.36085632,-0.46678138,0.28485212,0.5166091,-0.41336107,-0.52168244,0.5323232,0.54458433,-0.49532452,-0.37685886,-0.38980266
-0.0018975561,-0.313251,-0.4095899,0.24244986,0.45820484,-0.35850227,-0.52798754,0.71457255,0.7737758,-0.39316598,-0.36151156,-0.37105066
0.029042665,-0.2854812,-0.38359374,0.21216257,0.44652396,-0.33107284,-0.5374453,0.9267434,1.04541,-0.27605736,-0.3062613,-0.33823463
0.2971912,-0.14663233,-0.3368007,0.024381278,0.5516516,-0.23049839,-0.5374453,1.1389143,1.3594873,-0.17639045,-0.21724701,-0.24916254
0.43126547,0.07155875,-0.123632394,-0.18157241,0.37643886,-0.011063155,-0.546903,1.2586005,1.6141446,-0.041840162,-0.08832976,-0.1132104
0.61690676,0.34528938,0.13632895,-0.4481007,0.1895453,0.2586593,-0.5532082,1.288522,1.7584503,0.1151352,0.074351534,0.05086977
0.8438017,0.58728313,0.34949723,-0.6964566,0.08441767,0.49180925,-0.55005556,1.2477199,1.7457175,0.22726046,0.21247716,0.12118984
0.7612945,0.71423066,0.5522671,-0.7691461,-0.1959227,0.65638566,-0.5910391,1.1497949,1.665076,0.2945356,0.2554496,0.10243782
0.7509811,0.7896058,0.6510525,-0.82366323,-0.31273118,0.73867387,-0.6414804,0.99474686,1.5419917,0.30201063,0.2615885,0.08837381
0.7509811,0.74200046,0.5938609,-0.7873185,-0.24264611,0.6883866,-0.66985357,0.7635351,1.2830902,0.28706062,0.24931067,0.074309796
0.62722015,0.5555463,0.41188797,-0.6055947,-0.11415675,0.50095236,-0.68561643,0.5187225,0.93081445,0.16247697,0.13267124,0.055557776
0.16311693,0.27388138,0.27670807,-0.26031935,-0.21928439,0.27694556,-0.6950742,0.3065516,0.5742943,0.020451652,-0.0054543857,-0.07570636
-0.17722544,0.075525865,0.18832123,-0.0059060254,-0.31273118,0.1215123,-0.70453197,0.14878349,0.3196372,-0.084198594,-0.12516326,-0.2069705
-0.21847907,-0.015717681,0.089535914,0.07284097,-0.21928439,0.030080952,-0.72029483,0.050858475,0.14986573,-0.18635716,-0.22645538,-0.25853854
-0.33192652,-0.09505989,0.04274287,0.16976033,-0.23096526,-0.038492557,-0.7266,-0.019865157,0.009804293,-0.21874888,-0.26021942,-0.28666657
-0.15659863,-0.15456654,-0.123632394,0.16370288,0.04937513,-0.13906702,-0.7266,-0.052506834,-0.066592865,-0.23868227,-0.31853914,-0.2960426
0.04966947,-0.19423765,-0.2796092,0.13341556,0.3530772,-0.23506995,-0.7266,-0.066107534,-0.0878143,-0.27356568,-0.3430948,-0.3101066
-0.012210959,-0.20613898,-0.2640115,0.15764542,0.2829921,-0.23049839,-0.7266,-0.079708226,-0.08357,-0.28602403,-0.33695588,-0.32417062
-0.0740914,-0.20613898,-0.23281613,0.18187526,0.22458784,-0.22135524,-0.7266,-0.09602907,-0.08357,-0.28602403,-0.35844207,-0.33823463
-0.3112997,-0.2815141,-0.21721846,0.30908194,0.07273682,-0.2579278,-0.7266,-0.11234991,-0.08357,-0.28602403,-0.34616426,-0.31479463
-0.42474714,-0.30928388,-0.19122232,0.35754162,-0.020709965,-0.2579278,-0.7266,-0.11234991,-0.07932572,-0.28602403,-0.3891367,-0.3101066
-0.38349357,-0.27357987,-0.1652262,0.32725433,-0.032390814,-0.23049839,-0.7266,-0.098749205,-0.066592865,-0.28602403,-0.45052585,-0.3101066
-0.39380693,-0.26961276,-0.14962852,0.32119685,-0.055752512,-0.22135524,-0.7266,-0.09058879,-0.058104288,-0.27605736,-0.42290074,-0.28666657
-0.36286673,-0.24581009,-0.13403085,0.29090956,-0.055752512,-0.19849741,-0.7266,-0.079708226,-0.045371428,-0.25114062,-0.40755343,-0.2913546
-0.36286673,-0.22994165,-0.123632394,0.28485212,-0.055752512,-0.18935429,-0.72344744,-0.07154781,-0.028394284,-0.23120725,-0.38299775,-0.28197858
-0.19785225,-0.13869812,-0.0872378,0.16370288,-0.009029117,-0.1162092,-0.7266,-0.057947114,-0.019905712,-0.20629051,-0.36458102,-0.23041052
-0.06377799,0.03982187,0.08433668,-0.011963488,-0.13751845,0.062081926,-0.6730062,-0.047066554,-0.011417139,-0.13403204,-0.33388644,-0.16946645
0.111549914,0.2381774,0.25591117,-0.21791714,-0.23096526,0.24951616,-0.62571746,-0.008984599,0.031025724,-0.08918193,-0.23259431,-0.14133844
0.18374375,0.34528938,0.3598957,-0.32089397,-0.30105034,0.35466224,-0.6320227,-0.019865157,0.07771287,-0.10662364,-0.21417755,-0.15071443
-0.012210959,0.3651249,0.48467714,-0.27849177,-0.558029,0.41866416,-0.6320227,-0.15587214,0.005560006,-0.09416527,-0.22338592,-0.14133844
-0.12565842,0.404796,0.5938609,-0.2724343,-0.7449226,0.49180925,-0.62887007,-0.2157152,-0.117524296,-0.1016403,-0.23873322,-0.15071443
-0.05346458,0.33338803,0.4638802,-0.24214698,-0.558029,0.3958063,-0.6351752,-0.21843535,-0.17270002,-0.099148616,-0.23873322,-0.14133844
0.03935606,0.059657417,0.05834055,-0.054365717,-0.055752512,0.062081926,-0.62571746,-0.22387561,-0.21089861,-0.1016403,-0.28784457,-0.16009045
-0.32161313,-0.19820476,-0.09763625,0.24244986,-0.06743336,-0.15735331,-0.60364944,-0.23747632,-0.2788072,-0.17639045,-0.41369238,-0.30541858
-0.6413287,-0.3211852,-0.09763625,0.43628863,-0.25432694,-0.22592682,-0.546903,-0.24019647,-0.2788072,-0.19383216,-0.4259702,-0.38042668
-0.8166566,-0.47590253,-0.21721846,0.6058975,-0.21928439,-0.36764538,-0.5153772,-0.25923744,-0.31700575,-0.2336989,-0.46280372,-0.33354664
-0.8372833,-0.4679683,-0.18602309,0.6058975,-0.26600778,-0.35393068,-0.47124115,-0.25923744,-0.2745629,-0.18137379,-0.44438693,-0.38980266
-0.5381946,-0.5195407,-0.4095899,0.55138034,0.15450276,-0.477363,-0.43025765,-0.27555826,-0.31700575,-0.24615727,-0.48735937,-0.4882508
-0.5897617,-0.44416562,-0.2848084,0.5089781,-0.009029117,-0.38136005,-0.39873183,-0.28643882,-0.2788072,-0.17639045,-0.45973426,-0.50700283
-0.4866276,-0.5909487,-0.5291721,0.59378254,0.31803462,-0.5733659,-0.3230699,-0.21299505,-0.2788072,-0.26359898,-0.52726233,-0.4835628
-0.38349357,-1.0868375,-1.2310677,0.94511527,1.1707367,-1.1676697,-0.38612148,-0.038906135,-0.066592865,-0.47040778,-0.82499975,-0.49762678
0.7716078,0.30958536,0.021945965,-0.46627307,0.41148144,0.18551423,-0.28523898,0.48336065,1.4358845,0.83024514,0.3199082,0.36965412
3.7934356,3.7411358,2.9855053,-3.9735432,-1.2121565,3.4678996,-1.1616558,-0.9066307,2.7049263,3.9249024,3.4507556,3.046505
3.6387346,5.423191,5.2731647,-5.209265,-3.863709,5.4428163,-2.7789285,-3.9259856,0.89261585,5.223063,4.8627067,4.181002
0.25593758,2.5629041,3.235068,-2.0351553,-3.4899218,2.8964536,-2.7442503,-4.4264913,-3.050326,1.4531633,1.6060112,1.6119754
-1.4560878,-0.44416562,0.15192664,0.76339155,-0.99022037,-0.18935429,-1.6881365,-2.7508852,-3.5851061,-1.2627597,-1.1595707,-0.53044283
-1.2395062,-0.53540915,-0.07164013,0.7755064,-0.61643326,-0.34021598,-0.7549732,-1.2058461,-1.5266273,-0.60744977,-0.84341645,-0.60545087
-0.78571635,-0.4362314,-0.17562464,0.5695528,-0.25432694,-0.32650128,-0.22849256,-0.42244586,-0.7159687,-0.45794943,-0.6162766,-0.52106684
-0.6413287,-0.46400118,-0.2848084,0.5453229,-0.044071663,-0.39050323,-0.08662653,-0.16403256,-0.36369288,-0.31094077,-0.51805395,-0.5023148
-0.55882144,-0.4322643,-0.2796092,0.49686322,-0.009029117,-0.37221694,0.014255982,-0.047066554,-0.2703186,-0.25861564,-0.44438693,-0.46949878
-0.52788126,-0.46400118,-0.34719914,0.5089781,0.08441767,-0.4179326,0.06469724,-0.011704739,-0.19392146,-0.24117394,-0.4259702,-0.45074674
-0.52788126,-0.4322643,-0.30560532,0.48474827,0.03769428,-0.38136005,0.14035913,0.053578608,-0.12176859,-0.17389879,-0.35537264,-0.41793072
-0.4556874,-0.45606697,-0.3731953,0.47869083,0.16618359,-0.42707577,0.1750375,0.09710085,-0.10054715,-0.18884881,-0.35537264,-0.3991787
-0.39380693,-0.40846166,-0.3368007,0.42417368,0.15450276,-0.38136005,0.17819007,0.116141826,-0.019905712,-0.12655702,-0.29705292,-0.37573865
-0.40412036,-0.40449452,-0.32640222,0.43023115,0.14282192,-0.37678853,0.23178391,0.18686546,0.043758582,-0.14150704,-0.28784457,-0.37105066
-0.38349357,-0.37275764,-0.29520687,0.39994383,0.11946022,-0.34478757,0.31375095,0.30927175,0.14986573,-0.09665695,-0.24180268,-0.35229868
-0.49694103,-0.3568892,-0.21201923,0.42417368,-0.044071663,-0.29907185,0.41778603,0.43167803,0.3238815,-0.09416527,-0.22031647,-0.34292263
-0.2700461,-0.33308655,-0.30040607,0.3333118,0.17786445,-0.32192972,0.48399016,0.5704051,0.49789724,-0.05679019,-0.1957608,-0.33354664
-0.22879247,-0.313251,-0.30040607,0.30908194,0.212907,-0.31278658,0.5785675,0.77441555,0.72708863,0.0055016177,-0.16199677,-0.31479463
-0.4763142,-0.27357987,-0.123632394,0.35148418,-0.1258376,-0.20764056,0.70467067,1.0273886,1.0751201,0.077760115,-0.0852603,-0.25385055
-0.084404804,-0.051421676,-0.019647852,0.060726047,-0.020709965,-0.038492557,0.7141284,1.1960372,1.367976,0.19985206,0.055934783,-0.14133844
0.2971912,0.23421028,0.15712586,-0.26637682,-0.009029117,0.2038005,0.7015181,1.2341192,1.5886788,0.3518441,0.21247716,0.013365732
0.48283252,0.48810536,0.3962903,-0.5207902,-0.172561,0.4552367,0.6983655,1.231399,1.5419917,0.4764277,0.38129738,0.13525386
0.6684738,0.70629644,0.5886617,-0.7388588,-0.2893695,0.6655288,0.6857552,1.1797165,1.4825717,0.56861955,0.5286313,0.25714198
0.68910056,0.84514534,0.76023614,-0.85395056,-0.4645822,0.82096213,0.67945004,1.0219483,1.4443731,0.58107793,0.56546485,0.29464602
0.3384448,0.8173756,0.9058145,-0.7267439,-0.8266885,0.86667776,0.67945004,0.80705726,1.2448916,0.56363624,0.5317008,0.23838995
0.13217671,0.6666254,0.8070292,-0.54502004,-0.83836937,0.7341023,0.69521296,0.5731253,0.95203584,0.52127784,0.50100625,0.1774459
-0.03283777,0.44843423,0.6042594,-0.33300892,-0.6981992,0.5238102,0.68890774,0.333753,0.54458433,0.39171085,0.39357516,0.055557776
-0.41443378,0.17867073,0.44308332,-0.018020948,-0.7332417,0.29523185,0.7015181,0.13790293,0.2559729,0.25716054,0.24317175,-0.08977038
-0.55882144,0.0041178716,0.28710654,0.15764542,-0.63979495,0.12608387,0.7078232,-0.0062644603,0.04800287,0.15251029,0.1203934,-0.22103451
-0.60007507,-0.055388786,0.22991504,0.21216257,-0.5930715,0.07122506,0.70467067,-0.11234991,-0.12176859,0.08274346,0.071282074,-0.28666657
-0.62070185,-0.079191454,0.20911813,0.24244986,-0.5813907,0.043795653,0.7204336,-0.16131242,-0.18967716,0.060318407,0.071282074,-0.31479463
-0.60007507,-0.09505989,0.17792279,0.24850734,-0.54634815,0.020937815,0.72358614,-0.17219296,-0.26183003,0.045368373,0.05900424,-0.35698664
-0.6310153,-0.12679677,0.14672741,0.27879465,-0.51130563,-0.011063155,0.72358614,-0.20755479,-0.2957843,0.025434995,0.052865323,-0.35698664
-0.7960297,-0.2101061,0.12073127,0.3938864,-0.5813907,-0.06592196,0.739349,-0.24019647,-0.3042729,0.0055016177,0.040587492,-0.35698664
-0.80634314,-0.23787586,0.09473514,0.41205877,-0.558029,-0.09335136,0.739349,-0.21843535,-0.3254943,-0.0094484165,0.04979587,-0.35698664
-0.7650895,-0.22597454,0.089535914,0.3938864,-0.5346673,-0.08877979,0.7425016,-0.2021145,-0.33822718,-0.0019733994,0.0620737,-0.35698664
-0.7341493,-0.21804032,0.089535914,0.38177145,-0.51130563,-0.08420822,0.7582645,-0.18307352,-0.33822718,0.010484963,0.05900424,-0.35229868
-0.6722689,-0.20613898,0.068739004,0.35754162,-0.45290136,-0.08877979,0.76772225,-0.1667527,-0.33822718,0.015468307,0.05900424,-0.33354664
-0.6722689,-0.21407321,0.05834055,0.35754162,-0.45290136,-0.09792293,0.77717996,-0.15315199,-0.33822718,0.027926667,0.05900424,-0.33823463
-0.6103885,-0.18233633,0.068739004,0.32119685,-0.41785884,-0.0750651,0.7929429,-0.12867074,-0.33822718,0.03041834,0.055934783,-0.32417062
-0.5794482,-0.14266522,0.105133586,0.27879465,-0.44122055,-0.038492557,0.8024006,-0.120510325,-0.3085172,0.047860045,0.08969882,-0.30541858
-0.5691349,-0.118862554,0.13112973,0.2545648,-0.4645822,-0.011063155,0.8150109,-0.09058879,-0.22363146,0.06281008,0.1203934,-0.3101066
-0.54850805,-0.047454562,0.21431737,0.1939902,-0.558029,0.06665349,0.837079,-0.09058879,-0.18543288,0.10267684,0.17564365,-0.2913546
-0.39380693,0.15486807,0.40148953,-0.0059060254,-0.6748375,0.26323086,0.8465367,-0.011704739,-0.092058584,0.17742702,0.25851905,-0.25853854
-0.2700461,0.30561826,0.53666943,-0.15128508,-0.7566034,0.40952104,0.81816345,-0.025305435,-0.028394284,0.16496865,0.25851905,-0.23041052
-0.34223995,0.2818156,0.5470679,-0.11494032,-0.8150076,0.4003779,0.7866377,-0.21299505,-0.19816573,0.15500195,0.24931067,-0.18821847
-0.32161313,0.25404584,0.4950756,-0.1028254,-0.7449226,0.35923383,0.76456964,-0.28099856,-0.34247145,0.13756025,0.2401023,-0.17415448
-0.19785225,0.23421028,0.40668872,-0.12099779,-0.5697099,0.3135181,0.72673875,-0.28643882,-0.3000286,0.12759356,0.22782446,-0.12727441
-0.32161313,0.023953423,0.19352046,0.07284097,-0.3944971,0.09865446,0.73619646,-0.30003953,-0.33822718,0.11264353,0.22782446,-0.2116585
-0.5691349,-0.2101061,0.0115475105,0.32725433,-0.3360929,-0.11163763,0.73619646,-0.37076318,-0.4825329,0.097693495,0.17257419,-0.3944907
-0.7341493,-0.34498787,-0.08203857,0.47869083,-0.32441205,-0.23049839,0.739349,-0.37348333,-0.47828862,0.10018516,0.10197666,-0.42261872
-0.7341493,-0.38465896,-0.13403085,0.5089781,-0.26600778,-0.28078562,0.7425016,-0.38164374,-0.5037543,0.06779343,0.080490455,-0.44137073
-0.6619555,-0.34895498,-0.11843316,0.46051842,-0.24264611,-0.25335622,0.73304385,-0.3843639,-0.4613115,0.10018516,0.098907195,-0.46012273
-0.60007507,-0.40052742,-0.21721846,0.48474827,-0.09079506,-0.32650128,0.75511193,-0.3925243,-0.5164872,0.025434995,0.055934783,-0.4882508
-0.55882144,-0.3172181,-0.12883162,0.4060013,-0.172561,-0.23964152,0.73304385,-0.3843639,-0.4528229,0.12011854,0.09583775,-0.47887477
-0.62070185,-0.65045536,-0.5343713,0.68464446,0.24794956,-0.60993844,0.77717996,-0.29731938,-0.44009003,-0.059281863,-0.091399215,-0.55857086
-0.4763142,-1.0114625,-1.0854894,0.914828,0.9488005,-1.057952,0.8055532,-0.068827674,-0.18118858,-0.18884881,-0.25101104,-0.708587
0.9469358,0.583316,0.28710654,-0.7267439,0.212907,0.46437982,0.8244686,0.49424124,1.6183889,1.3211046,1.1824261,0.44935018
4.0925245,4.058505,3.2610643,-4.300646,-1.3523268,3.7696228,-0.16859357,-1.0671189,3.1420877,4.4581203,4.451399,3.4637375
3.7418685,5.216901,4.945614,-5.0820584,-3.4431987,5.1776657,-1.653458,-3.9994292,1.0369215,5.0436625,5.2955,4.260698
-0.06377799,2.0233772,2.68395,-1.5263287,-3.0577304,2.3432941,-1.4926765,-4.2605624,-3.2073646,1.081904,1.7533453,1.2931912
-1.2704464,-0.4243301,0.08433668,0.6967594,-0.8150076,-0.20764056,-0.43971536,-2.584957,-3.478999,-0.92140055,-0.43824804,-0.61951494
-1.4148341,-0.50367224,0.053141326,0.79973626,-0.86173105,-0.26249936,0.4209386,-1.1269621,-1.4672073,-0.28602403,-0.1957608,-0.6382669
-1.3942072,-0.5155736,0.021945965,0.80579364,-0.8150076,-0.28535718,0.837079,-0.46324795,-0.8730073,-0.21127386,-0.14971894,-0.6570189
-0.8579102,-0.47986963,-0.19642155,0.6180124,-0.26600778,-0.35850227,0.93480885,-0.2565173,-0.49951005,-0.034365144,-0.033079512,-0.6148269
-0.8579102,-0.4679683,-0.18602309,0.6058975,-0.27768862,-0.3493591,1.0230811,-0.14227144,-0.4316015,-0.016923433,-0.042287886,-0.6101389
-0.7547762,-0.45209986,-0.21201923,0.5695528,-0.18424185,-0.35393068,1.0104709,-0.09058879,-0.3297386,0.027926667,-0.023871137,-0.59138685
-0.77540296,-0.4282972,-0.17042542,0.55743784,-0.24264611,-0.32192972,1.0419966,-0.025305435,-0.2745629,0.050351717,-0.002384927,-0.5726349
-0.7341493,-0.42036298,-0.18082388,0.53926545,-0.20760356,-0.32192972,1.0419966,0.020936936,-0.25758576,0.047860045,-0.0054543857,-0.55857086
-0.69289565,-0.38862607,-0.16002697,0.5029207,-0.20760356,-0.29450032,1.0829802,0.08622029,-0.18543288,0.09021847,0.028309654,-0.53513086
-0.6722689,-0.38465896,-0.1652262,0.49080575,-0.1959227,-0.29450032,1.1397265,0.11886196,-0.15572289,0.08274346,0.025240196,-0.5257548
-0.41443378,-0.3529221,-0.25361305,0.3938864,0.04937513,-0.31735814,1.1775575,0.21406686,-0.019905712,0.1151352,0.05900424,-0.5023148
-0.42474714,-0.34498787,-0.23801537,0.3938864,0.026013428,-0.30364344,1.2784399,0.36367452,0.10317858,0.15998532,0.0620737,-0.4929388
-0.4866276,-0.3211852,-0.17562464,0.38782892,-0.079114206,-0.26249936,1.316271,0.5268829,0.33661434,0.20483541,0.08969882,-0.45543477
-0.38349357,-0.2537443,-0.13923006,0.30908194,-0.055752512,-0.20306899,1.3761699,0.7499343,0.6040044,0.25466886,0.098907195,-0.41793072
-0.43506056,-0.09505989,0.09473514,0.20004764,-0.34777373,-0.011063155,1.4076957,0.9974671,0.92232585,0.35433576,0.14494908,-0.4038667
-0.34223995,0.083460085,0.28190732,0.0364962,-0.51130563,0.17179953,1.3793224,1.1688359,1.2448916,0.48141104,0.2830747,-0.28666657
0.10123649,0.3135525,0.3598957,-0.2724343,-0.3594546,0.33637595,1.3730173,1.1797165,1.4231517,0.6458614,0.41813084,-0.061642352
0.26625097,0.583316,0.6302555,-0.52684766,-0.558029,0.6152416,1.3477967,1.1416345,1.4740831,0.76795334,0.56546485,0.09774982
0.3384448,0.7896058,0.86422074,-0.702514,-0.7799651,0.83467674,1.3351864,1.1008323,1.4613503,0.86762017,0.6821043,0.13525386
0.7509811,0.94829017,0.86422074,-0.9448125,-0.558029,0.9261081,1.3194234,0.96482533,1.3255332,0.87260354,0.7527018,0.09306181
0.5859665,0.85704666,0.8330254,-0.82972074,-0.6047524,0.8575346,1.2973554,0.72817326,1.0708759,0.8327368,0.64527076,0.055557776
0.08060969,0.62695426,0.77583385,-0.50261784,-0.8266885,0.70210135,1.2847451,0.48336065,0.73982155,0.7903784,0.37515846,0.008677726
-0.18753885,0.40082893,0.62505627,-0.24820445,-0.8150076,0.50095236,1.2658297,0.26302937,0.3790572,0.66579473,0.19406043,-0.10383439
-0.2906729,0.19057207,0.3962903,-0.06042318,-0.61643326,0.28151712,1.2469141,0.08078001,0.07346858,0.5486862,0.04979587,-0.26791456
-0.20816565,0.055690315,0.17792279,0.018323816,-0.31273118,0.10779759,1.2311513,-0.047066554,-0.117524296,0.4564943,-0.07298247,-0.3991787
-0.36286673,-0.055388786,0.105133586,0.15158795,-0.32441205,0.011794682,1.2279986,-0.14499158,-0.24909718,0.40915257,-0.14358002,-0.43199474
-0.5691349,-0.13869812,0.11033282,0.27273718,-0.44122055,-0.029349422,1.2279986,-0.20483464,-0.37218145,0.37177747,-0.1957608,-0.45074674
-0.89916384,-0.2815141,0.08433668,0.47869083,-0.6047524,-0.12535234,1.2279986,-0.22659576,-0.4188686,0.34686074,-0.22952484,-0.5257548
-1.033238,-0.34102073,0.07393823,0.5634953,-0.6748375,-0.16649644,1.2279986,-0.23203604,-0.43584573,0.34187737,-0.25101104,-0.5491949
-0.9610442,-0.3211852,0.06353977,0.5271505,-0.61643326,-0.15735331,1.2279986,-0.24019647,-0.4231129,0.3319107,-0.2540805,-0.5398188
-0.9610442,-0.33308655,0.0479421,0.53320795,-0.5930715,-0.17106801,1.2311513,-0.24835688,-0.4231129,0.32443568,-0.2632889,-0.54450685
-0.87853694,-0.32515234,0.016746737,0.5029207,-0.5229865,-0.18021114,1.2500668,-0.25379714,-0.4231129,0.30948564,-0.27556673,-0.54450685
-0.8372833,-0.3291194,-0.0092493985,0.5029207,-0.4645822,-0.19392584,1.2721349,-0.24835688,-0.4231129,0.31945235,-0.2786362,-0.54450685
-0.7444627,-0.30531678,-0.024847079,0.44840354,-0.3944971,-0.18478271,1.2847451,-0.23475617,-0.4231129,0.32443568,-0.2694278,-0.52106684
-0.6310153,-0.28944832,-0.061241668,0.4060013,-0.2893695,-0.19392584,1.300508,-0.2293159,-0.41038004,0.32443568,-0.2540805,-0.4835628
-0.54850805,-0.25771144,-0.061241668,0.3635991,-0.24264611,-0.17563957,1.3068131,-0.21299505,-0.38491434,0.321944,-0.24794158,-0.46012273
-0.6619555,-0.24581009,0.0115475105,0.38177145,-0.38281626,-0.13449547,1.3257287,-0.20755479,-0.37218145,0.32443568,-0.23566374,-0.42261872
-0.6722689,-0.19820476,0.07913746,0.3454267,-0.4645822,-0.07963666,1.3288811,-0.19667423,-0.34671575,0.3518441,-0.22031647,-0.3944907
-0.50725436,-0.059355896,0.17792279,0.1939902,-0.4879439,0.043795653,1.3541019,-0.15587214,-0.3297386,0.39669418,-0.2111081,-0.36636266
-0.37318015,0.0874272,0.30270422,0.04255366,-0.54634815,0.18094265,1.4171534,-0.098749205,-0.3042729,0.46895266,-0.119024344,-0.35698664
-0.30098632,0.2381774,0.4638802,-0.09676794,-0.6865183,0.33637595,1.3761699,-0.08786865,-0.25334147,0.46646103,-0.07298247,-0.36167467
-0.3112997,0.29768404,0.5470679,-0.13917017,-0.79164594,0.40952104,1.3194234,-0.22115548,-0.3297386,0.45151097,-0.091399215,-0.35229868
-0.084404804,0.32942092,0.46907946,-0.23003207,-0.5813907,0.3958063,1.3068131,-0.31364024,-0.44857863,0.4415443,-0.10367706,-0.36636266
-0.115345016,0.24214453,0.3806926,-0.15128508,-0.4996248,0.304375,1.3036606,-0.32996106,-0.4528229,0.42908594,-0.11595489,-0.33823463
-0.41443378,-0.027619014,0.17272355,0.13947302,-0.42953968,0.057510357,1.300508,-0.34084165,-0.4528229,0.4216109,-0.13130218,-0.4132427
-0.69289565,-0.2854812,-0.030046308,0.42417368,-0.3594546,-0.17563957,1.2847451,-0.35716248,-0.50799865,0.34935242,-0.21417755,-0.55388284
-0.7650895,-0.40846166,-0.15482776,0.53926545,-0.25432694,-0.30364344,1.2910503,-0.38164374,-0.5334643,0.30948564,-0.2540805,-0.5726349
-0.6413287,-0.46003407,-0.2796092,0.53926545,-0.044071663,-0.39050323,1.300508,-0.39524445,-0.5843958,0.28207725,-0.27556673,-0.5960748
-0.91979057,-0.5235078,-0.2224177,0.6725296,-0.27768862,-0.39507478,1.316271,-0.36532292,-0.53770864,0.32443568,-0.26021942,-0.6101389
